t_s,envelope_uV
0.000,62.8311
0.010,62.5515
0.020,62.8353
0.030,66.2760
0.040,70.6737
0.050,59.1504
0.060,66.1214
0.070,62.6997
0.080,67.7025
0.090,67.2109
0.100,72.0922
0.110,61.7494
0.120,69.7223
0.130,61.9273
0.140,61.3275
0.150,67.1238
0.160,66.6425
0.170,63.2450
0.180,64.2574
0.190,65.5189
0.200,69.2460
0.210,68.5656
0.220,72.1366
0.230,63.3138
0.240,68.7022
0.250,73.0898
0.260,68.5918
0.270,73.6259
0.280,64.0124
0.290,72.2341
0.300,69.8976
0.310,74.9355
0.320,67.7301
0.330,69.9416
0.340,64.2511
0.350,70.3905
0.360,74.9018
0.370,73.9875
0.380,66.7857
0.390,70.7631
0.400,73.8369
0.410,74.5417
0.420,64.0813
0.430,72.1351
0.440,72.1378
0.450,65.5383
0.460,69.9830
0.470,69.2806
0.480,67.3182
0.490,69.7162
0.500,73.5016
0.510,62.2935
0.520,69.0473
0.530,63.5843
0.540,68.2144
0.550,64.8046
0.560,69.9441
0.570,66.4291
0.580,72.2609
0.590,67.1313
0.600,64.4710
0.610,68.8652
0.620,66.1733
0.630,71.6129
0.640,60.7409
0.650,63.2731
0.660,66.6086
0.670,63.1151
0.680,68.9446
0.690,66.7583
0.700,63.1141
0.710,62.8141
0.720,67.4081
0.730,68.6070
0.740,64.5107
0.750,63.5070
0.760,60.0968
0.770,63.9577
0.780,57.2548
0.790,58.2921
0.800,56.7030
0.810,65.5145
0.820,63.8823
0.830,62.8458
0.840,65.6891
0.850,65.7601
0.860,58.5865
0.870,55.1734
0.880,65.6842
0.890,56.9492
0.900,59.5220
0.910,65.2140
0.920,56.6614
0.930,64.6634
0.940,55.9774
0.950,59.9655
0.960,58.4736
0.970,63.8534
0.980,60.0772
0.990,64.9808
1.000,63.3422
1.010,58.6476
1.020,64.9973
1.030,65.9138
1.040,59.0036
1.050,65.3940
1.060,53.5089
1.070,58.2161
1.080,56.4410
1.090,60.5189
1.100,61.9277
1.110,62.4441
1.120,53.5900
1.130,57.7507
1.140,61.3547
1.150,56.6248
1.160,60.8976
1.170,56.9411
1.180,62.1271
1.190,55.3942
1.200,64.5169
1.210,65.6765
1.220,54.0954
1.230,65.3825
1.240,65.9067
1.250,59.6169
1.260,56.9485
1.270,61.6071
1.280,55.5025
1.290,64.4749
1.300,65.9374
1.310,65.2223
1.320,59.6088
1.330,59.5271
1.340,62.7682
1.350,58.6929
1.360,64.3009
1.370,57.2291
1.380,63.6904
1.390,57.7903
1.400,58.1068
1.410,67.8466
1.420,64.5526
1.430,59.6871
1.440,70.4030
1.450,60.2780
1.460,68.6846
1.470,63.6228
1.480,59.4654
1.490,72.1015
1.500,71.4825
1.510,69.2769
1.520,72.3806
1.530,70.6511
1.540,71.8446
1.550,63.8581
1.560,67.3430
1.570,65.8725
1.580,70.7201
1.590,64.5036
1.600,63.8929
1.610,69.1941
1.620,74.3959
1.630,71.6182
1.640,68.3932
1.650,71.8122
1.660,74.8190
1.670,64.4104
1.680,75.5763
1.690,64.2596
1.700,65.3135
1.710,67.2459
1.720,76.0844
1.730,64.1729
1.740,73.9987
1.750,66.9847
1.760,63.8057
1.770,69.6932
1.780,67.4914
1.790,64.0765
1.800,66.1381
1.810,67.2941
1.820,68.9276
1.830,67.8977
1.840,71.7936
1.850,65.2311
1.860,71.6421
1.870,64.1844
1.880,71.7964
1.890,63.6801
1.900,73.4371
1.910,74.6518
1.920,66.8096
1.930,70.0253
1.940,67.2026
1.950,65.5282
1.960,62.8897
1.970,66.1860
1.980,73.9599
1.990,63.9432
2.000,69.7381
2.010,69.0073
2.020,61.7459
2.030,60.8995
2.040,65.4173
2.050,65.8073
2.060,64.9869
2.070,60.1002
2.080,67.6064
2.090,60.3141
2.100,67.9806
2.110,63.7629
2.120,64.9713
2.130,59.0677
2.140,61.1989
2.150,69.6138
2.160,66.2650
2.170,61.1191
2.180,63.0635
2.190,63.4922
2.200,62.3357
2.210,67.8020
2.220,60.8799
2.230,63.0770
2.240,66.4287
2.250,68.0864
2.260,65.5043
2.270,55.7794
2.280,62.7026
2.290,62.9191
2.300,55.8591
2.310,60.1152
2.320,62.8095
2.330,62.4123
2.340,61.2970
2.350,62.8002
2.360,57.9274
2.370,62.3732
2.380,56.6100
2.390,65.5969
2.400,61.8096
2.410,64.9541
2.420,56.2147
2.430,65.4113
2.440,55.7090
2.450,55.0702
2.460,60.0415
2.470,60.1805
2.480,65.4358
2.490,57.6167
2.500,65.0179
2.510,60.8443
2.520,57.8943
2.530,54.0881
2.540,62.5107
2.550,61.8816
2.560,57.4672
2.570,53.9145
2.580,57.8334
2.590,64.3831
2.600,61.3105
2.610,56.9554
2.620,58.8706
2.630,57.1689
2.640,63.8345
2.650,60.6262
2.660,67.0066
2.670,60.6000
2.680,63.8810
2.690,57.2961
2.700,61.8641
2.710,58.5897
2.720,66.1970
2.730,59.1089
2.740,56.3195
2.750,64.0237
2.760,67.1176
2.770,68.2230
2.780,60.1833
2.790,68.4808
2.800,69.9651
2.810,59.0985
2.820,62.8222
2.830,61.3587
2.840,65.6141
2.850,64.4351
2.860,59.1594
2.870,68.2702
2.880,67.7838
2.890,71.2806
2.900,69.9401
2.910,70.2231
2.920,68.6604
2.930,70.7922
2.940,61.7935
2.950,67.3869
2.960,69.0935
2.970,71.5473
2.980,66.7195
2.990,69.6605
3.000,66.1878
3.010,65.0043
3.020,72.1121
3.030,68.2629
3.040,73.1310
3.050,73.2785
3.060,73.1999
3.070,69.3610
3.080,63.1398
3.090,71.6401
3.100,66.0496
3.110,71.4054
3.120,69.2644
3.130,73.1693
3.140,69.2768
3.150,71.0220
3.160,65.6122
3.170,64.1241
3.180,72.6285
3.190,74.6060
3.200,72.3066
3.210,71.2856
3.220,75.6920
3.230,68.3956
3.240,73.4545
3.250,67.8254
3.260,74.0548
3.270,75.3874
3.280,73.3085
3.290,71.0792
3.300,68.9688
3.310,74.4092
3.320,74.1061
3.330,74.3179
3.340,67.4316
3.350,75.5732
3.360,64.6372
3.370,69.0661
3.380,68.0118
3.390,72.0621
3.400,68.7140
3.410,63.0195
3.420,71.4080
3.430,73.4223
3.440,67.9295
3.450,64.4231
3.460,72.2063
3.470,72.6189
3.480,68.8888
3.490,63.8451
3.500,72.2529
3.510,65.9385
3.520,59.8915
3.530,68.4464
3.540,68.5500
3.550,67.9265
3.560,64.4325
3.570,61.2687
3.580,60.4255
3.590,62.0449
3.600,58.1695
3.610,59.0101
3.620,66.4822
3.630,62.3421
3.640,67.6964
3.650,69.4891
3.660,68.4337
3.670,65.9450
3.680,65.7099
3.690,67.3019
3.700,63.1498
3.710,60.7693
3.720,59.1185
3.730,59.8027
3.740,60.2730
3.750,57.6906
3.760,62.6532
3.770,60.9384
3.780,56.8441
3.790,61.6314
3.800,60.7041
3.810,55.1910
3.820,56.1487
3.830,59.8198
3.840,66.1143
3.850,60.6123
3.860,60.3156
3.870,66.3093
3.880,56.3686
3.890,64.9958
3.900,62.5297
3.910,59.0048
3.920,63.4985
3.930,63.9715
3.940,60.5199
3.950,60.4814
3.960,56.0057
3.970,54.7935
3.980,61.8125
3.990,57.3716
4.000,54.1761
4.010,65.0783
4.020,54.3171
4.030,58.1919
4.040,55.8088
4.050,61.1797
4.060,66.0307
4.070,58.4075
4.080,56.6522
4.090,66.1671
4.100,62.8664
4.110,62.9716
4.120,65.0802
4.130,66.6050
4.140,68.4249
4.150,62.5887
4.160,56.9746
4.170,57.4798
4.180,58.5848
4.190,60.4030
4.200,61.0073
4.210,60.0693
4.220,65.8126
4.230,57.9552
4.240,58.8741
4.250,58.2436
4.260,69.8239
4.270,65.5343
4.280,69.9826
4.290,59.5943
4.300,70.0596
4.310,61.6469
4.320,62.8760
4.330,60.0431
4.340,64.7794
4.350,62.7501
4.360,65.7820
4.370,66.9855
4.380,65.5955
4.390,62.3861
4.400,63.2137
4.410,61.5540
4.420,68.1435
4.430,71.1302
4.440,69.6878
4.450,66.2794
4.460,73.9598
4.470,66.0809
4.480,71.4759
4.490,69.9641
4.500,66.1317
4.510,69.8521
4.520,72.8429
4.530,66.3910
4.540,71.1242
4.550,76.2407
4.560,70.6142
4.570,65.4954
4.580,65.7185
4.590,72.2281
4.600,66.5854
4.610,64.3401
4.620,67.1142
4.630,70.5399
4.640,68.1060
4.650,65.4323
4.660,72.5413
4.670,69.1596
4.680,72.3046
4.690,65.4274
4.700,66.4191
4.710,70.7833
4.720,71.1631
4.730,65.9762
4.740,72.0187
4.750,71.7144
4.760,74.6611
4.770,64.3282
4.780,72.4481
4.790,64.9616
4.800,68.1231
4.810,72.6432
4.820,75.1634
4.830,64.2222
4.840,72.4910
4.850,69.1472
4.860,63.2657
4.870,69.1597
4.880,61.9678
4.890,67.4807
4.900,71.3991
4.910,61.2267
4.920,69.0067
4.930,61.8877
4.940,69.7219
4.950,62.1609
4.960,68.5345
4.970,64.3254
4.980,66.4115
4.990,66.3488
5.000,70.6484
5.010,65.3337
5.020,68.0826
5.030,66.0071
5.040,62.4118
5.050,58.7360
5.060,67.9238
5.070,60.5445
5.080,66.6782
5.090,57.6156
5.100,66.7261
5.110,61.1794
5.120,64.6369
5.130,66.3065
5.140,66.7898
5.150,67.5426
5.160,55.6241
5.170,67.8407
5.180,55.7089
5.190,61.3299
5.200,57.5450
5.210,61.4065
5.220,56.1177
5.230,63.1537
5.240,59.6824
5.250,56.5795
5.260,66.6840
5.270,56.9590
5.280,58.8002
5.290,65.8259
5.300,66.5178
5.310,55.6741
5.320,57.4133
5.330,65.8025
5.340,66.7215
5.350,65.8216
5.360,64.3029
5.370,63.5218
5.380,62.5566
5.390,54.8784
5.400,54.2425
5.410,65.2764
5.420,65.5825
5.430,66.5768
5.440,59.1388
5.450,61.2966
5.460,62.0540
5.470,63.5552
5.480,64.0116
5.490,63.5255
5.500,57.3288
5.510,57.9277
5.520,57.3660
5.530,63.5173
5.540,64.6848
5.550,66.8376
5.560,56.5387
5.570,57.8915
5.580,64.3108
5.590,65.4896
5.600,62.7606
5.610,57.3511
5.620,69.4191
5.630,61.3688
5.640,62.8884
5.650,61.6755
5.660,65.8737
5.670,64.2059
5.680,69.9383
5.690,66.3516
5.700,69.5084
5.710,66.4604
5.720,68.7386
5.730,61.3098
5.740,66.5498
5.750,65.8417
5.760,61.5269
5.770,72.1391
5.780,71.0181
5.790,63.9784
5.800,69.3458
5.810,64.8147
5.820,71.1337
5.830,69.1201
5.840,73.8230
5.850,66.8184
5.860,66.3600
5.870,67.7439
5.880,69.0423
5.890,66.6336
5.900,68.0593
5.910,63.6063
5.920,63.4430
5.930,74.0366
5.940,71.5908
5.950,64.8290
5.960,66.5633
5.970,65.7133
5.980,76.3581
5.990,73.7586
6.000,66.2860
6.010,71.1122
6.020,67.3869
6.030,70.1440
6.040,71.7054
6.050,68.0220
6.060,67.8679
6.070,69.9981
6.080,71.1159
6.090,67.0304
6.100,76.3163
6.110,74.5242
6.120,70.4725
6.130,70.6508
6.140,70.2712
6.150,71.7491
6.160,73.6166
6.170,73.6175
6.180,69.3886
6.190,72.6871
6.200,66.3206
6.210,67.9988
6.220,73.0523
6.230,70.3216
6.240,63.7948
6.250,65.1465
6.260,63.0162
6.270,72.4635
6.280,66.5855
6.290,62.4875
6.300,63.8209
6.310,70.2713
6.320,69.3272
6.330,67.5097
6.340,65.1351
6.350,65.6804
6.360,65.7312
6.370,64.0487
6.380,70.7431
6.390,61.7431
6.400,72.6177
6.410,70.1433
6.420,66.7845
6.430,61.3791
6.440,65.1358
6.450,68.2155
6.460,58.6498
6.470,60.8832
6.480,60.2765
6.490,61.6723
6.500,63.9120
6.510,69.7897
6.520,69.4657
6.530,59.0933
6.540,68.0125
6.550,66.5595
6.560,60.5384
6.570,65.8368
6.580,65.0617
6.590,67.5711
6.600,60.4194
6.610,63.9838
6.620,66.7940
6.630,61.5210
6.640,58.2793
6.650,57.5894
6.660,57.3603
6.670,61.5974
6.680,56.8808
6.690,63.7985
6.700,62.4526
6.710,66.0162
6.720,64.9907
6.730,63.0132
6.740,64.5605
6.750,61.4831
6.760,57.6400
6.770,63.0591
6.780,60.5176
6.790,65.9828
6.800,55.8680
6.810,58.3423
6.820,66.3655
6.830,64.1085
6.840,60.1906
6.850,65.2179
6.860,62.3193
6.870,65.2373
6.880,67.0993
6.890,65.9299
6.900,63.6624
6.910,66.4046
6.920,66.0422
6.930,66.8913
6.940,67.7061
6.950,58.5740
6.960,67.2616
6.970,59.0784
6.980,58.8050
6.990,63.8772
7.000,60.7872
7.010,66.4546
7.020,61.2115
7.030,58.8176
7.040,58.4574
7.050,66.8487
7.060,59.2748
7.070,65.8366
7.080,68.8653
7.090,69.4528
7.100,62.1233
7.110,60.1310
7.120,64.8530
7.130,60.2207
7.140,66.7916
7.150,69.8689
7.160,72.3132
7.170,68.4894
7.180,62.7912
7.190,68.2081
7.200,61.0188
7.210,65.1797
7.220,68.6415
7.230,73.5102
7.240,62.3249
7.250,63.6709
7.260,68.6332
7.270,72.7965
7.280,62.9799
7.290,65.9814
7.300,74.4829
7.310,65.9659
7.320,69.1028
7.330,67.1192
7.340,67.2678
7.350,65.4165
7.360,69.3162
7.370,75.8764
7.380,67.2607
7.390,76.6765
7.400,70.2833
7.410,65.2138
7.420,65.2672
7.430,67.6450
7.440,67.5179
7.450,66.0396
7.460,75.2136
7.470,69.5727
7.480,76.1241
7.490,73.4895
7.500,65.4680
7.510,68.8799
7.520,65.9868
7.530,71.5435
7.540,76.2861
7.550,76.9817
7.560,71.9541
7.570,76.5282
7.580,72.5749
7.590,72.8383
7.600,73.2487
7.610,72.6674
7.620,72.6828
7.630,74.8510
7.640,75.0578
7.650,74.8654
7.660,76.1181
7.670,67.4773
7.680,69.0271
7.690,66.5061
7.700,64.6441
7.710,63.4098
7.720,63.9695
7.730,66.4834
7.740,73.7708
7.750,63.2705
7.760,63.9624
7.770,64.9468
7.780,70.3018
7.790,61.3476
7.800,72.2839
7.810,61.3736
7.820,71.6671
7.830,71.0559
7.840,68.5861
7.850,61.3705
7.860,70.2256
7.870,59.5134
7.880,70.2595
7.890,61.6411
7.900,63.2293
7.910,65.7292
7.920,58.9330
7.930,62.5110
7.940,69.4293
7.950,65.3272
7.960,58.9266
7.970,57.6116
7.980,66.1967
7.990,65.7179
8.000,69.1124
8.010,58.5118
8.020,65.2829
8.030,65.4578
8.040,65.3080
8.050,61.1150
8.060,65.8802
8.070,57.6056
8.080,63.3099
8.090,67.6307
8.100,60.4476
8.110,60.9163
8.120,56.2029
8.130,60.6255
8.140,57.5034
8.150,61.4669
8.160,66.2629
8.170,55.4699
8.180,59.9151
8.190,58.1089
8.200,58.9537
8.210,61.1549
8.220,65.5856
8.230,58.4835
8.240,65.7137
8.250,61.1222
8.260,61.7761
8.270,63.8876
8.280,65.6420
8.290,56.6648
8.300,66.0093
8.310,57.2357
8.320,62.5198
8.330,62.3466
8.340,58.2738
8.350,64.1488
8.360,56.4662
8.370,61.8375
8.380,64.6824
8.390,67.7787
8.400,66.0985
8.410,64.3386
8.420,66.3442
8.430,62.3185
8.440,64.7120
8.450,61.8909
8.460,58.6098
8.470,67.6252
8.480,60.5737
8.490,65.9853
8.500,63.4109
8.510,66.9043
8.520,58.8950
8.530,59.7352
8.540,69.2886
8.550,69.9755
8.560,61.7753
8.570,63.1605
8.580,61.2565
8.590,62.1052
8.600,72.2003
8.610,65.9483
8.620,61.8575
8.630,68.8251
8.640,62.2908
8.650,73.8165
8.660,73.4730
8.670,67.1799
8.680,71.0443
8.690,73.7262
8.700,62.9747
8.710,72.9910
8.720,72.5577
8.730,68.2144
8.740,65.5585
8.750,67.7914
8.760,75.7877
8.770,68.7168
8.780,66.3565
8.790,72.1945
8.800,72.1625
8.810,71.4439
8.820,70.0414
8.830,66.7048
8.840,76.6764
8.850,71.5542
8.860,71.3938
8.870,69.0840
8.880,69.2885
8.890,71.5865
8.900,73.2570
8.910,68.2183
8.920,70.4761
8.930,65.1994
8.940,71.4104
8.950,68.4539
8.960,70.7659
8.970,73.9886
8.980,67.5167
8.990,65.9704
9.000,77.0857
9.010,76.9540
9.020,64.6672
9.030,65.2455
9.040,66.3218
9.050,65.3687
9.060,74.5729
9.070,74.5746
9.080,68.9984
9.090,71.5373
9.100,63.8732
9.110,73.2327
9.120,67.7097
9.130,74.1890
9.140,70.6416
9.150,66.4614
9.160,64.7772
9.170,66.3041
9.180,63.0655
9.190,67.7674
9.200,71.1632
9.210,63.9318
9.220,67.0368
9.230,65.3975
9.240,71.1087
9.250,62.6220
9.260,69.8811
9.270,72.7627
9.280,71.8787
9.290,70.3390
9.300,60.8556
9.310,65.1057
9.320,71.2503
9.330,68.5026
9.340,66.3164
9.350,61.2052
9.360,68.8365
9.370,64.9612
9.380,57.8612
9.390,65.6934
9.400,57.7569
9.410,60.6167
9.420,61.0769
9.430,61.7398
9.440,66.3770
9.450,65.6956
9.460,66.0701
9.470,68.2895
9.480,63.8212
9.490,67.9458
9.500,67.1741
9.510,68.1486
9.520,58.5593
9.530,61.7529
9.540,67.9368
9.550,65.3605
9.560,67.0231
9.570,56.5117
9.580,61.6361
9.590,61.6288
9.600,63.3239
9.610,64.8861
9.620,66.5115
9.630,62.1552
9.640,66.8482
9.650,63.6948
9.660,63.3881
9.670,58.8269
9.680,58.7248
9.690,55.0270
9.700,59.7106
9.710,57.2009
9.720,61.1358
9.730,67.7940
9.740,58.8617
9.750,63.6192
9.760,58.1973
9.770,62.0188
9.780,64.6534
9.790,60.7088
9.800,56.0581
9.810,67.8129
9.820,64.4167
9.830,62.4767
9.840,58.0068
9.850,61.5274
9.860,62.5041
9.870,63.3965
9.880,62.9565
9.890,59.7048
9.900,66.3497
9.910,63.8031
9.920,67.6379
9.930,63.8539
9.940,62.1795
9.950,63.9210
9.960,64.1224
9.970,62.9705
9.980,62.8022
9.990,71.6235
10.000,70.2454
10.010,64.3238
10.020,65.4239
10.030,62.3866
10.040,65.6176
10.050,68.4954
10.060,71.6278
10.070,66.8934
10.080,62.0309
10.090,66.1484
10.100,67.3051
10.110,74.7477
10.120,70.5760
10.130,72.1341
10.140,70.8512
10.150,68.7408
10.160,71.5841
10.170,68.2904
10.180,63.6098
10.190,63.9102
10.200,66.8492
10.210,64.9408
10.220,64.5518
10.230,65.2158
10.240,66.9384
10.250,76.2476
10.260,75.2980
10.270,67.3862
10.280,75.3029
10.290,75.2256
10.300,69.7992
10.310,77.4771
10.320,68.2278
10.330,71.4797
10.340,77.7028
10.350,67.2948
10.360,72.7744
10.370,66.6790
10.380,75.4288
10.390,75.6280
10.400,74.9050
10.410,77.6315
10.420,70.9052
10.430,76.2818
10.440,67.5026
10.450,67.4703
10.460,71.0198
10.470,76.9996
10.480,76.5894
10.490,65.1703
10.500,75.4710
10.510,70.4278
10.520,65.0092
10.530,71.3406
10.540,68.9992
10.550,75.1557
10.560,64.5538
10.570,63.8600
10.580,62.9496
10.590,70.1299
10.600,69.6403
10.610,70.0594
10.620,74.4295
10.630,70.7555
10.640,73.0230
10.650,68.6572
10.660,65.9389
10.670,72.8139
10.680,67.3251
10.690,64.7014
10.700,63.0608
10.710,62.4772
10.720,65.9047
10.730,69.8983
10.740,71.8067
10.750,64.6107
10.760,69.3903
10.770,67.5242
10.780,68.5636
10.790,65.1982
10.800,63.0515
10.810,70.2712
10.820,60.5455
10.830,69.2403
10.840,61.6302
10.850,57.4754
10.860,58.0862
10.870,62.3465
10.880,61.3922
10.890,58.0614
10.900,62.3840
10.910,60.0244
10.920,68.2980
10.930,59.4999
10.940,59.1782
10.950,68.0738
10.960,67.0220
10.970,66.9220
10.980,66.5328
10.990,64.1125
11.000,63.1197
11.010,58.4924
11.020,66.3367
11.030,59.4273
11.040,55.2399
11.050,61.1508
11.060,66.8660
11.070,57.6207
11.080,57.5045
11.090,65.0570
11.100,55.1362
11.110,66.2964
11.120,58.3790
11.130,65.2230
11.140,64.7217
11.150,66.2044
11.160,60.6793
11.170,57.8267
11.180,56.5582
11.190,59.8600
11.200,60.8050
11.210,66.7731
11.220,57.5157
11.230,64.0980
11.240,62.1248
11.250,63.1627
11.260,67.0536
11.270,60.1243
11.280,58.1860
11.290,68.9703
11.300,67.1708
11.310,68.9058
11.320,68.2781
11.330,70.1906
11.340,63.5252
11.350,62.6903
11.360,62.8975
11.370,70.7231
11.380,63.4595
11.390,62.3982
11.400,68.2127
11.410,62.9301
11.420,71.7516
11.430,62.7966
11.440,66.8288
11.450,65.5662
11.460,72.3601
11.470,72.3607
11.480,61.4396
11.490,70.1108
11.500,74.5493
11.510,70.5526
11.520,66.0232
11.530,63.7917
11.540,63.5477
11.550,63.0642
11.560,68.9908
11.570,64.0970
11.580,70.5218
11.590,73.3197
11.600,72.1267
11.610,65.2773
11.620,69.3060
11.630,70.4146
11.640,76.0631
11.650,66.8997
11.660,76.7494
11.670,70.1506
11.680,77.1268
11.690,70.0291
11.700,71.0634
11.710,74.3286
11.720,74.6700
11.730,67.7626
11.740,77.2523
11.750,75.7438
11.760,67.6945
11.770,71.5061
11.780,71.2674
11.790,68.6328
11.800,77.4794
11.810,77.3832
11.820,65.4017
11.830,76.7314
11.840,77.3520
11.850,66.1964
11.860,74.1146
11.870,76.5990
11.880,66.8903
11.890,70.2552
11.900,71.4126
11.910,69.8412
11.920,74.3135
11.930,77.0279
11.940,69.9592
11.950,69.4954
11.960,64.7907
11.970,71.7084
11.980,73.0139
11.990,73.3982
12.000,70.0836
12.010,72.3220
12.020,63.0324
12.030,67.5215
12.040,70.8316
12.050,68.4033
12.060,65.4719
12.070,73.4137
12.080,68.8885
12.090,61.9509
12.100,72.4295
12.110,66.7669
12.120,64.2749
12.130,67.3407
12.140,61.1552
12.150,71.5880
12.160,63.6551
12.170,64.5069
12.180,70.6374
12.190,62.0479
12.200,63.5281
12.210,68.5067
12.220,64.3050
12.230,58.6625
12.240,60.0425
12.250,62.2008
12.260,70.1230
12.270,67.2743
12.280,58.6120
12.290,61.5811
12.300,61.2022
12.310,66.8929
12.320,67.3965
12.330,68.4595
12.340,56.9917
12.350,57.1716
12.360,59.3142
12.370,64.1653
12.380,56.5098
12.390,65.5493
12.400,55.9497
12.410,60.3800
12.420,58.8519
12.430,68.3170
12.440,62.8105
12.450,61.0839
12.460,59.8956
12.470,63.0684
12.480,64.7480
12.490,60.8750
12.500,63.4081
12.510,62.7013
12.520,67.1821
12.530,59.7032
12.540,60.4339
12.550,58.2882
12.560,56.8548
12.570,64.2948
12.580,66.9347
12.590,67.6707
12.600,63.1426
12.610,65.6782
12.620,57.6716
12.630,65.1659
12.640,62.6979
12.650,66.4061
12.660,60.1203
12.670,67.9888
12.680,63.4056
12.690,68.4390
12.700,60.7938
12.710,66.6516
12.720,70.0998
12.730,65.3599
12.740,62.0456
12.750,60.5155
12.760,63.1426
12.770,68.3029
12.780,63.7138
12.790,69.1280
12.800,62.2786
12.810,64.0878
12.820,61.5549
12.830,71.9950
12.840,60.5476
12.850,61.4891
12.860,63.6572
12.870,61.5446
12.880,70.6134
12.890,71.2771
12.900,71.5766
12.910,74.4053
12.920,72.0681
12.930,70.7388
12.940,74.2398
12.950,63.2765
12.960,69.0505
12.970,70.8391
12.980,65.9983
12.990,70.1537
13.000,70.1795
13.010,67.3849
13.020,76.7016
13.030,68.6267
13.040,73.9081
13.050,66.7782
13.060,64.9595
13.070,69.7155
13.080,72.1145
13.090,77.7689
13.100,73.0778
13.110,68.3188
13.120,74.3894
13.130,70.3434
13.140,77.1695
13.150,74.3408
13.160,67.1789
13.170,67.8823
13.180,67.9537
13.190,71.6772
13.200,75.4319
13.210,77.8178
13.220,75.6808
13.230,76.7800
13.240,70.1717
13.250,73.9233
13.260,67.4137
13.270,70.5649
13.280,71.7989
13.290,69.5397
13.300,78.0388
13.310,77.6495
13.320,65.4139
13.330,72.6742
13.340,69.6710
13.350,76.8756
13.360,65.9771
13.370,73.8784
13.380,71.7161
13.390,70.9953
13.400,75.8749
13.410,75.4963
13.420,65.6135
13.430,64.8715
13.440,71.5148
13.450,65.3190
13.460,74.7358
13.470,71.7902
13.480,69.1081
13.490,74.4000
13.500,72.3982
13.510,69.4810
13.520,69.5492
13.530,62.5641
13.540,73.3235
13.550,65.6945
13.560,70.4546
13.570,66.7285
13.580,63.7878
13.590,60.3755
13.600,72.8153
13.610,70.2105
13.620,67.9105
13.630,68.0010
13.640,70.3095
13.650,70.5107
13.660,63.0688
13.670,71.2571
13.680,66.9003
13.690,65.5135
13.700,68.0636
13.710,63.7625
13.720,66.5117
13.730,67.8644
13.740,58.2486
13.750,59.1153
13.760,58.0198
13.770,65.7019
13.780,62.0140
13.790,66.9677
13.800,60.5427
13.810,67.5632
13.820,63.8827
13.830,60.2527
13.840,57.7758
13.850,67.4529
13.860,56.7265
13.870,61.0598
13.880,64.7618
13.890,57.7827
13.900,59.5676
13.910,65.2857
13.920,65.9966
13.930,61.3773
13.940,66.9177
13.950,61.4298
13.960,68.4508
13.970,61.5016
13.980,67.7671
13.990,65.3188
14.000,58.8590
14.010,61.4238
14.020,63.9064
14.030,61.6366
14.040,65.0138
14.050,66.6637
14.060,67.9576
14.070,57.0078
14.080,60.5092
14.090,59.3852
14.100,63.9237
14.110,57.8004
14.120,68.1938
14.130,63.9417
14.140,60.1433
14.150,69.4344
14.160,62.9278
14.170,68.3123
14.180,65.1313
14.190,66.5101
14.200,60.0056
14.210,65.9454
14.220,68.7637
14.230,71.3706
14.240,66.7065
14.250,70.5550
14.260,66.2763
14.270,65.2334
14.280,63.6408
14.290,70.5587
14.300,61.7736
14.310,73.3345
14.320,62.3458
14.330,65.0957
14.340,67.6494
14.350,64.0414
14.360,71.3974
14.370,65.2716
14.380,71.0499
14.390,67.7983
14.400,68.3865
14.410,67.8032
14.420,75.1887
14.430,74.4538
14.440,64.9287
14.450,67.4701
14.460,76.7225
14.470,69.3948
14.480,69.6838
14.490,69.7014
14.500,74.0133
14.510,71.6134
14.520,71.0457
14.530,72.7296
14.540,67.1797
14.550,76.8596
14.560,74.7625
14.570,75.0194
14.580,70.9085
14.590,73.8219
14.600,74.3813
14.610,71.1414
14.620,75.5521
14.630,71.6256
14.640,75.6490
14.650,72.7776
14.660,75.2176
14.670,72.2833
14.680,70.3487
14.690,66.6297
14.700,72.3862
14.710,72.8589
14.720,74.1004
14.730,70.4665
14.740,68.4384
14.750,71.7035
14.760,66.9652
14.770,77.7854
14.780,74.6178
14.790,73.3901
14.800,71.8690
14.810,70.6866
14.820,74.3675
14.830,76.8414
14.840,74.2733
14.850,65.5048
14.860,70.7001
14.870,74.9597
14.880,65.8040
14.890,72.0598
14.900,66.0637
14.910,71.3655
14.920,70.2668
14.930,72.1774
14.940,63.3270
14.950,62.1741
14.960,73.9356
14.970,72.9569
14.980,63.8933
14.990,72.4044
15.000,65.4253
15.010,66.0066
15.020,64.7482
15.030,64.6486
15.040,69.1756
15.050,76.6245
15.060,69.7452
15.070,72.5303
15.080,81.0422
15.090,73.3131
15.100,71.8716
15.110,82.9551
15.120,85.7226
15.130,75.9031
15.140,80.2542
15.150,86.9655
15.160,80.7465
15.170,80.3633
15.180,86.8274
15.190,86.0485
15.200,85.0933
15.210,93.9620
15.220,88.0605
15.230,92.7812
15.240,90.2258
15.250,98.6580
15.260,94.8860
15.270,96.1840
15.280,94.1796
15.290,99.5955
15.300,102.0638
15.310,97.8942
15.320,97.3664
15.330,102.0121
15.340,106.7793
15.350,105.7616
15.360,102.6229
15.370,102.4440
15.380,100.2058
15.390,105.3012
15.400,111.9529
15.410,104.4748
15.420,114.5104
15.430,116.8031
15.440,105.7307
15.450,106.6401
15.460,111.0601
15.470,109.2760
15.480,114.1573
15.490,117.0930
15.500,120.4883
15.510,123.6105
15.520,125.6751
15.530,124.2248
15.540,124.0029
15.550,124.4482
15.560,125.6604
15.570,121.3156
15.580,127.9726
15.590,123.4439
15.600,133.1072
15.610,129.3657
15.620,124.9870
15.630,128.2969
15.640,135.4044
15.650,128.4956
15.660,137.8625
15.670,141.4593
15.680,142.2872
15.690,134.7627
15.700,138.2204
15.710,144.8773
15.720,138.1203
15.730,138.3947
15.740,144.9832
15.750,146.3675
15.760,141.6320
15.770,145.2650
15.780,152.8004
15.790,150.3995
15.800,153.5322
15.810,149.8324
15.820,146.2902
15.830,151.0774
15.840,148.8036
15.850,153.1073
15.860,148.9311
15.870,151.5286
15.880,150.4259
15.890,158.2957
15.900,164.7691
15.910,160.7884
15.920,160.0097
15.930,165.2208
15.940,163.1914
15.950,169.5161
15.960,165.1600
15.970,162.1724
15.980,165.3127
15.990,166.1414
16.000,172.5058
16.010,172.4715
16.020,167.9635
16.030,163.4020
16.040,172.2889
16.050,171.5326
16.060,167.6197
16.070,165.2872
16.080,174.5745
16.090,170.6271
16.100,165.5191
16.110,172.7115
16.120,172.1960
16.130,162.8627
16.140,164.2391
16.150,170.0929
16.160,173.6610
16.170,167.3986
16.180,168.0913
16.190,172.7503
16.200,172.0949
16.210,170.6325
16.220,165.2652
16.230,167.1982
16.240,173.2867
16.250,164.7599
16.260,170.9306
16.270,175.1886
16.280,163.7624
16.290,168.4163
16.300,171.3259
16.310,166.2728
16.320,169.4459
16.330,171.9516
16.340,162.6111
16.350,167.4130
16.360,171.6271
16.370,174.1371
16.380,167.5332
16.390,168.2784
16.400,174.2005
16.410,170.2630
16.420,168.1412
16.430,173.5892
16.440,175.1370
16.450,166.8103
16.460,174.5401
16.470,169.2506
16.480,170.2004
16.490,165.9111
16.500,174.2782
16.510,173.4250
16.520,170.8007
16.530,164.6346
16.540,171.1464
16.550,167.3843
16.560,172.2663
16.570,167.8936
16.580,166.8731
16.590,168.5200
16.600,163.9367
16.610,172.0571
16.620,168.7665
16.630,171.8382
16.640,170.2964
16.650,169.0507
16.660,166.8654
16.670,165.4707
16.680,173.6338
16.690,165.2889
16.700,170.3425
16.710,175.3453
16.720,165.7353
16.730,168.8398
16.740,166.8166
16.750,174.0892
16.760,168.0929
16.770,166.4241
16.780,175.0807
16.790,165.1454
16.800,166.7718
16.810,172.1680
16.820,170.0575
16.830,174.8096
16.840,169.8835
16.850,165.0386
16.860,164.1482
16.870,173.1110
16.880,175.6691
16.890,168.7720
16.900,168.2485
16.910,166.5806
16.920,164.7431
16.930,163.2851
16.940,167.9416
16.950,165.7543
16.960,163.7736
16.970,172.4224
16.980,166.9410
16.990,169.5335
17.000,61.6129
17.010,63.5348
17.020,69.2501
17.030,68.4364
17.040,63.1855
17.050,71.3806
17.060,59.5263
17.070,68.2964
17.080,60.3344
17.090,71.6585
17.100,67.4105
17.110,68.1393
17.120,71.4596
17.130,63.3183
17.140,67.1678
17.150,72.0036
17.160,66.5495
17.170,70.3604
17.180,74.9354
17.190,72.2515
17.200,68.9167
17.210,66.3924
17.220,72.9419
17.230,69.2626
17.240,68.4657
17.250,75.0526
17.260,75.2380
17.270,75.4271
17.280,66.6950
17.290,76.4580
17.300,66.9497
17.310,64.9084
17.320,73.4225
17.330,72.8596
17.340,67.7433
17.350,67.1074
17.360,75.9350
17.370,71.4026
17.380,74.0878
17.390,72.6183
17.400,77.7190
17.410,67.7543
17.420,75.6017
17.430,78.5808
17.440,69.9728
17.450,69.8652
17.460,70.6340
17.470,73.9295
17.480,71.0487
17.490,69.9183
17.500,68.6888
17.510,71.6307
17.520,68.0037
17.530,68.0697
17.540,67.1228
17.550,69.6311
17.560,71.8779
17.570,77.6988
17.580,76.5344
17.590,73.1930
17.600,70.7568
17.610,66.5445
17.620,67.5667
17.630,71.5821
17.640,76.3230
17.650,73.1750
17.660,67.8876
17.670,67.5087
17.680,73.5675
17.690,68.2167
17.700,67.7837
17.710,77.1908
17.720,71.6283
17.730,65.6166
17.740,64.2378
17.750,74.6187
17.760,69.4610
17.770,68.0444
17.780,74.2326
17.790,72.6820
17.800,73.5367
17.810,73.0325
17.820,70.1030
17.830,73.6396
17.840,72.5540
17.850,73.8272
17.860,67.1300
17.870,72.8122
17.880,64.5452
17.890,66.2652
17.900,67.0887
17.910,70.9649
17.920,60.3624
17.930,70.0073
17.940,63.8981
17.950,71.1355
17.960,70.4102
17.970,61.8839
17.980,60.0575
17.990,63.8066
18.000,63.8750
18.010,68.3021
18.020,70.8040
18.030,59.0227
18.040,67.2353
18.050,60.0541
18.060,64.5983
18.070,65.0963
18.080,62.4801
18.090,65.7978
18.100,57.9709
18.110,64.7393
18.120,66.3262
18.130,60.4136
18.140,61.7321
18.150,65.5842
18.160,60.6360
18.170,69.3308
18.180,61.1540
18.190,57.6972
18.200,61.4237
18.210,66.9740
18.220,69.1942
18.230,66.2454
18.240,57.9754
18.250,58.8572
18.260,65.2441
18.270,60.3350
18.280,68.4700
18.290,67.9634
18.300,65.9774
18.310,69.3984
18.320,62.7131
18.330,57.3338
18.340,69.3244
18.350,67.5378
18.360,69.1479
18.370,70.3693
18.380,65.4043
18.390,67.4375
18.400,58.7343
18.410,63.4424
18.420,65.5322
18.430,66.3989
18.440,65.7970
18.450,62.3724
18.460,71.9248
18.470,63.9907
18.480,67.9837
18.490,67.6788
18.500,63.3990
18.510,65.8448
18.520,71.6511
18.530,70.3182
18.540,64.3268
18.550,61.7521
18.560,64.0300
18.570,67.9213
18.580,72.6195
18.590,68.5444
18.600,72.5939
18.610,62.7230
18.620,69.7074
18.630,72.1054
18.640,64.9648
18.650,64.8287
18.660,68.4575
18.670,64.5796
18.680,74.6319
18.690,70.9963
18.700,77.2375
18.710,65.3948
18.720,73.9506
18.730,65.1595
18.740,68.3617
18.750,77.5284
18.760,65.6342
18.770,72.2377
18.780,72.5108
18.790,74.9918
18.800,74.8405
18.810,69.5626
18.820,75.2629
18.830,72.9051
18.840,73.8046
18.850,77.4373
18.860,77.8338
18.870,74.9638
18.880,70.3746
18.890,68.0620
18.900,74.5699
18.910,77.5237
18.920,73.1808
18.930,67.4380
18.940,78.1619
18.950,71.9186
18.960,79.5212
18.970,68.4282
18.980,78.3465
18.990,72.7543
19.000,72.1441
19.010,69.4389
19.020,69.8916
19.030,73.0049
19.040,67.9226
19.050,72.8193
19.060,76.2362
19.070,78.1200
19.080,71.4905
19.090,69.3783
19.100,73.7401
19.110,74.3666
19.120,66.0931
19.130,65.6098
19.140,69.3030
19.150,77.3577
19.160,74.5657
19.170,72.2795
19.180,70.2709
19.190,68.3197
19.200,71.1298
19.210,66.5130
19.220,74.8611
19.230,70.4752
19.240,72.2985
19.250,66.4553
19.260,69.7452
19.270,73.2288
19.280,74.7345
19.290,72.2173
19.300,74.2860
19.310,66.2445
19.320,65.2105
19.330,63.8726
19.340,63.5208
19.350,61.5095
19.360,62.9569
19.370,66.9594
19.380,67.4348
19.390,63.8351
19.400,68.0934
19.410,63.6343
19.420,67.2418
19.430,67.5949
19.440,67.3787
19.450,59.6389
19.460,65.6654
19.470,61.2612
19.480,64.3219
19.490,67.5151
19.500,67.0429
19.510,57.5752
19.520,59.0797
19.530,67.2191
19.540,63.3779
19.550,66.1431
19.560,68.5311
19.570,58.0149
19.580,59.0345
19.590,60.7314
19.600,66.6570
19.610,68.3432
19.620,60.5383
19.630,60.9252
19.640,69.4911
19.650,67.0299
19.660,68.2789
19.670,66.6258
19.680,66.8353
19.690,68.4042
19.700,59.1031
19.710,66.9182
19.720,64.0958
19.730,64.2328
19.740,57.8963
19.750,60.2027
19.760,66.2311
19.770,66.3731
19.780,60.5890
19.790,59.5934
19.800,59.8902
19.810,64.6887
19.820,58.3399
19.830,59.8528
19.840,64.1901
19.850,64.9261
19.860,70.7513
19.870,66.2123
19.880,69.2495
19.890,69.2572
19.900,65.9820
19.910,69.2855
19.920,64.9679
19.930,64.7299
19.940,62.9359
19.950,72.9062
19.960,62.1115
19.970,62.0785
19.980,61.4882
19.990,69.2093
20.000,65.6764
20.010,73.2485
20.020,65.1611
20.030,67.1212
20.040,75.6368
20.050,67.0371
20.060,66.0094
20.070,66.0049
20.080,63.9338
20.090,73.4772
20.100,70.2684
20.110,74.3062
20.120,74.6671
20.130,72.1290
20.140,66.5016
20.150,67.9642
20.160,70.3965
20.170,71.4496
20.180,76.7223
20.190,76.3968
20.200,73.3726
20.210,71.5788
20.220,68.0357
20.230,73.2142
20.240,72.7111
20.250,67.7661
20.260,74.0466
20.270,67.5667
20.280,73.5115
20.290,67.0291
20.300,67.5452
20.310,79.2518
20.320,71.2095
20.330,78.2587
20.340,78.5704
20.350,69.7858
20.360,76.0473
20.370,71.4443
20.380,69.5350
20.390,69.3662
20.400,74.6964
20.410,73.2029
20.420,76.1860
20.430,78.4621
20.440,77.2218
20.450,76.6312
20.460,73.6542
20.470,67.1472
20.480,72.1634
20.490,71.3711
20.500,67.0154
20.510,69.0753
20.520,76.6478
20.530,77.1737
20.540,75.6956
20.550,75.9208
20.560,69.8709
20.570,75.3165
20.580,72.6390
20.590,76.3736
20.600,75.0168
20.610,76.3072
20.620,71.6372
20.630,70.5273
20.640,65.3250
20.650,72.0060
20.660,74.2007
20.670,70.8143
20.680,66.2990
20.690,64.6386
20.700,66.6098
20.710,73.9539
20.720,72.6481
20.730,65.4907
20.740,64.5616
20.750,68.5364
20.760,66.6608
20.770,70.6909
20.780,68.2033
20.790,63.9348
20.800,70.3238
20.810,71.7586
20.820,69.5299
20.830,66.3944
20.840,63.2070
20.850,68.3893
20.860,66.9908
20.870,61.0370
20.880,64.8176
20.890,63.5438
20.900,60.5442
20.910,69.7855
20.920,62.7314
20.930,65.4015
20.940,70.2856
20.950,60.9868
20.960,58.2605
20.970,65.9052
20.980,60.3868
20.990,66.0021
21.000,63.3280
21.010,62.8576
21.020,57.6951
21.030,68.0387
21.040,68.8231
21.050,64.2181
21.060,68.9613
21.070,66.8404
21.080,66.0695
21.090,59.3695
21.100,68.1085
21.110,68.4497
21.120,63.7089
21.130,69.3718
21.140,58.5942
21.150,65.0965
21.160,59.7427
21.170,62.1015
21.180,58.0002
21.190,61.5919
21.200,58.1539
21.210,70.1559
21.220,70.7810
21.230,59.1199
21.240,58.5722
21.250,68.7868
21.260,60.1040
21.270,67.2464
21.280,60.9406
21.290,71.5610
21.300,65.0015
21.310,68.9677
21.320,60.9067
21.330,62.9437
21.340,62.2748
21.350,62.1466
21.360,62.1293
21.370,61.9007
21.380,72.5781
21.390,67.1194
21.400,65.6455
21.410,73.1676
21.420,73.1031
21.430,70.3260
21.440,67.9795
21.450,71.0183
21.460,63.2469
21.470,72.2549
21.480,63.8390
21.490,71.0675
21.500,64.3397
21.510,75.3765
21.520,65.7704
21.530,72.0256
21.540,75.5542
21.550,65.8762
21.560,75.1699
21.570,65.6103
21.580,70.3376
21.590,71.3986
21.600,67.5698
21.610,71.5123
21.620,69.9756
21.630,73.3320
21.640,76.1289
21.650,73.5691
21.660,79.1226
21.670,77.7382
21.680,69.5034
21.690,69.6970
21.700,72.5911
21.710,79.1615
21.720,74.2452
21.730,68.9690
21.740,73.9938
21.750,77.8566
21.760,76.0149
21.770,69.0288
21.780,74.0926
21.790,68.8933
21.800,76.3789
21.810,73.3834
21.820,76.4354
21.830,72.6042
21.840,73.2190
21.850,74.8830
21.860,73.6138
21.870,72.5802
21.880,78.9858
21.890,77.0216
21.900,69.3184
21.910,71.8818
21.920,79.3662
21.930,76.4277
21.940,70.3640
21.950,72.3166
21.960,68.5859
21.970,67.5401
21.980,77.3210
21.990,65.9106
22.000,68.0001
22.010,67.9434
22.020,77.4530
22.030,67.2768
22.040,66.2420
22.050,68.5669
22.060,65.0943
22.070,67.4178
22.080,74.3265
22.090,63.6515
22.100,71.2392
22.110,68.2321
22.120,75.6719
22.130,64.4726
22.140,67.5144
22.150,72.0730
22.160,62.8217
22.170,62.4764
22.180,65.6043
22.190,70.2421
22.200,73.4388
22.210,64.0671
22.220,70.2534
22.230,64.8742
22.240,60.6740
22.250,64.8481
22.260,61.8448
22.270,70.9007
22.280,68.7524
22.290,60.1544
22.300,68.1955
22.310,64.6494
22.320,64.4341
22.330,66.8123
22.340,68.9551
22.350,66.0336
22.360,66.5348
22.370,59.7789
22.380,67.4827
22.390,57.7901
22.400,59.4495
22.410,62.1007
22.420,59.4615
22.430,65.6178
22.440,59.1582
22.450,60.7300
22.460,61.7616
22.470,59.5550
22.480,69.9822
22.490,66.2225
22.500,60.0838
22.510,66.8324
22.520,66.5868
22.530,59.4259
22.540,65.1803
22.550,65.9763
22.560,70.0109
22.570,61.8305
22.580,69.4075
22.590,62.4066
22.600,62.0850
22.610,60.6274
22.620,69.2053
22.630,68.8129
22.640,63.3013
22.650,66.3787
22.660,62.5163
22.670,65.2765
22.680,60.8764
22.690,60.1906
22.700,69.3252
22.710,69.5980
22.720,63.1713
22.730,64.8106
22.740,71.2403
22.750,62.7443
22.760,71.5885
22.770,63.1641
22.780,62.8785
22.790,64.1045
22.800,69.9419
22.810,62.8030
22.820,71.8481
22.830,74.1092
22.840,63.6278
22.850,68.9692
22.860,68.5243
22.870,64.0709
22.880,72.9343
22.890,74.1549
22.900,63.4379
22.910,75.0010
22.920,70.6483
22.930,71.9545
22.940,70.1572
22.950,70.4979
22.960,67.0102
22.970,70.5751
22.980,71.7408
22.990,73.2247
23.000,68.1334
23.010,68.9981
23.020,70.3672
23.030,72.1319
23.040,71.5373
23.050,67.5573
23.060,74.0018
23.070,75.8886
23.080,75.1921
23.090,71.5895
23.100,72.3217
23.110,73.0123
23.120,68.2357
23.130,78.1834
23.140,70.9967
23.150,69.1255
23.160,67.5329
23.170,80.2873
23.180,76.5591
23.190,72.1266
23.200,72.3341
23.210,67.8484
23.220,70.5541
23.230,74.7205
23.240,77.9247
23.250,70.2160
23.260,80.1185
23.270,76.8439
23.280,79.1287
23.290,75.8645
23.300,76.1692
23.310,70.8048
23.320,69.2279
23.330,78.5699
23.340,75.9008
23.350,76.3319
23.360,71.2332
23.370,75.2301
23.380,67.8013
23.390,72.5165
23.400,74.6475
23.410,72.6839
23.420,71.2880
23.430,67.9376
23.440,69.1127
23.450,73.0177
23.460,77.6934
23.470,76.6509
23.480,65.6470
23.490,72.2973
23.500,64.3797
23.510,69.7638
23.520,72.9088
23.530,63.7000
23.540,63.5179
23.550,74.3735
23.560,70.9845
23.570,65.1375
23.580,64.7424
23.590,65.3470
23.600,69.0470
23.610,66.0517
23.620,61.5913
23.630,70.6612
23.640,68.9819
23.650,71.3622
23.660,70.6921
23.670,70.1892
23.680,65.8358
23.690,69.8679
23.700,72.4532
23.710,64.1118
23.720,65.1563
23.730,68.9586
23.740,59.2917
23.750,70.5502
23.760,69.1155
23.770,62.3702
23.780,71.2805
23.790,62.0085
23.800,60.2661
23.810,67.9938
23.820,64.7516
23.830,66.6822
23.840,66.6651
23.850,60.1095
23.860,69.8724
23.870,65.8788
23.880,65.7572
23.890,58.9244
23.900,67.6048
23.910,59.7384
23.920,67.8404
23.930,61.3768
23.940,67.7769
23.950,58.2617
23.960,61.8825
23.970,70.1519
23.980,69.4980
23.990,66.7508
24.000,59.0333
24.010,65.0742
24.020,64.7629
24.030,65.9850
24.040,59.7758
24.050,65.7044
24.060,63.3588
24.070,66.3920
24.080,62.6284
24.090,62.5087
24.100,64.0604
24.110,69.0520
24.120,65.4585
24.130,64.7454
24.140,69.3301
24.150,63.6107
24.160,62.9822
24.170,68.8186
24.180,60.5909
24.190,63.5471
24.200,71.8820
24.210,61.7565
24.220,68.3205
24.230,73.9418
24.240,67.3614
24.250,69.1130
24.260,68.3463
24.270,73.9639
24.280,64.9068
24.290,67.7511
24.300,74.8459
24.310,67.9531
24.320,73.1295
24.330,72.3316
24.340,76.7789
24.350,71.4858
24.360,70.2580
24.370,75.1015
24.380,72.0107
24.390,72.5961
24.400,75.9323
24.410,68.0208
24.420,75.5004
24.430,78.3609
24.440,67.8918
24.450,76.0679
24.460,78.2263
24.470,67.2005
24.480,71.6648
24.490,70.9059
24.500,72.1679
24.510,72.2717
24.520,78.6390
24.530,69.2962
24.540,73.0943
24.550,76.8637
24.560,74.7023
24.570,70.1027
24.580,79.7494
24.590,75.7374
24.600,70.6697
24.610,79.2963
24.620,78.1602
24.630,73.6373
24.640,68.8742
24.650,79.7135
24.660,79.4260
24.670,75.3510
24.680,70.4611
24.690,73.8401
24.700,68.0060
24.710,80.0371
24.720,78.0976
24.730,79.0273
24.740,73.4902
24.750,74.8509
24.760,79.8924
24.770,78.5815
24.780,73.8319
24.790,70.1744
24.800,77.3324
24.810,70.7366
24.820,70.5285
24.830,75.8740
24.840,78.6514
24.850,76.8624
24.860,67.4969
24.870,73.5567
24.880,70.3015
24.890,66.4506
24.900,66.1660
24.910,68.5384
24.920,76.5026
24.930,70.0327
24.940,68.7589
24.950,67.9347
24.960,68.3177
24.970,72.7606
24.980,75.8903
24.990,71.8332
25.000,74.5157
25.010,70.7692
25.020,64.0236
25.030,62.6479
25.040,63.4051
25.050,71.0115
25.060,63.1381
25.070,63.4451
25.080,70.6750
25.090,71.8344
25.100,61.2986
25.110,61.0734
25.120,68.6869
25.130,64.8147
25.140,70.2851
25.150,64.5730
25.160,70.8821
25.170,64.2176
25.180,60.3615
25.190,65.1194
25.200,61.2231
25.210,66.4281
25.220,69.3803
25.230,67.0243
25.240,60.3671
25.250,64.4880
25.260,67.8013
25.270,63.1300
25.280,61.9052
25.290,64.8672
25.300,63.2341
25.310,60.7171
25.320,59.7663
25.330,58.9707
25.340,61.4481
25.350,62.6357
25.360,63.4773
25.370,60.5993
25.380,67.7201
25.390,67.0117
25.400,69.0410
25.410,69.6613
25.420,58.6624
25.430,69.8916
25.440,69.0121
25.450,70.0468
25.460,63.8067
25.470,65.0834
25.480,59.0455
25.490,65.1490
25.500,68.4665
25.510,70.4737
25.520,70.0623
25.530,69.9690
25.540,66.3168
25.550,63.0864
25.560,70.6519
25.570,67.0083
25.580,69.0389
25.590,64.0188
25.600,69.9148
25.610,62.1663
25.620,67.5668
25.630,67.8909
25.640,63.0893
25.650,73.1087
25.660,72.6887
25.670,73.6193
25.680,65.5035
25.690,70.2236
25.700,74.9150
25.710,63.1773
25.720,71.4380
25.730,68.3001
25.740,67.3162
25.750,67.6551
25.760,75.8764
25.770,71.9348
25.780,67.7168
25.790,73.6219
25.800,72.0221
25.810,76.1471
25.820,67.1381
25.830,76.5931
25.840,75.1976
25.850,76.1544
25.860,77.7252
25.870,76.1548
25.880,68.1767
25.890,79.3494
25.900,70.8912
25.910,73.4906
25.920,75.8409
25.930,76.8734
25.940,79.6783
25.950,72.8126
25.960,70.0482
25.970,70.1556
25.980,75.5313
25.990,78.7883
26.000,68.5840
26.010,71.6558
26.020,72.8660
26.030,69.9751
26.040,68.7204
26.050,76.7119
26.060,78.8236
26.070,70.4859
26.080,80.1064
26.090,69.7388
26.100,69.4366
26.110,76.7256
26.120,70.8895
26.130,75.5254
26.140,73.3865
26.150,78.2456
26.160,70.1662
26.170,79.6165
26.180,78.6832
26.190,72.7079
26.200,71.8198
26.210,76.4868
26.220,77.8684
26.230,72.8366
26.240,67.8900
26.250,71.7448
26.260,77.3368
26.270,69.4922
26.280,68.5914
26.290,67.1342
26.300,78.0612
26.310,78.3625
26.320,75.0719
26.330,66.9414
26.340,73.1581
26.350,65.9551
26.360,77.3000
26.370,64.8415
26.380,70.1270
26.390,74.6367
26.400,70.1370
26.410,66.8887
26.420,73.1469
26.430,70.4982
26.440,67.0010
26.450,67.0691
26.460,74.9651
26.470,64.2963
26.480,68.5007
26.490,65.2369
26.500,68.8746
26.510,65.7431
26.520,72.6517
26.530,73.5943
26.540,70.5575
26.550,63.9999
26.560,67.5996
26.570,70.8618
26.580,62.2694
26.590,64.8043
26.600,61.3990
26.610,61.4759
26.620,59.5344
26.630,67.8584
26.640,68.7909
26.650,63.1993
26.660,64.4389
26.670,62.6452
26.680,70.1460
26.690,64.2088
26.700,61.1839
26.710,60.3998
26.720,69.8285
26.730,62.9073
26.740,70.9247
26.750,58.5133
26.760,58.1028
26.770,64.1786
26.780,70.0848
26.790,68.8340
26.800,60.8708
26.810,66.9412
26.820,63.9122
26.830,62.3771
26.840,59.3575
26.850,64.5874
26.860,58.7017
26.870,59.7556
26.880,63.9170
26.890,63.7320
26.900,66.9549
26.910,67.2513
26.920,60.4790
26.930,70.0674
26.940,69.7840
26.950,69.7987
26.960,64.3621
26.970,71.1224
26.980,65.6171
26.990,72.7792
27.000,72.2118
27.010,66.4204
27.020,61.7638
27.030,71.1487
27.040,64.3095
27.050,74.0117
27.060,66.4364
27.070,67.8158
27.080,62.1098
27.090,65.9624
27.100,72.7732
27.110,69.6814
27.120,74.1843
27.130,72.3666
27.140,75.3741
27.150,76.2865
27.160,65.7431
27.170,74.1474
27.180,76.1100
27.190,73.2694
27.200,75.5027
27.210,77.3676
27.220,69.9383
27.230,67.1919
27.240,75.5619
27.250,67.5610
27.260,73.2846
27.270,74.0558
27.280,67.4755
27.290,72.8061
27.300,69.3824
27.310,72.4908
27.320,78.6463
27.330,78.1313
27.340,70.2622
27.350,72.9872
27.360,78.5506
27.370,73.7023
27.380,80.6381
27.390,79.3322
27.400,76.6172
27.410,79.2330
27.420,75.6029
27.430,79.4135
27.440,80.9387
27.450,69.0522
27.460,71.9242
27.470,77.9787
27.480,77.6293
27.490,70.0013
27.500,79.7480
27.510,80.2166
27.520,71.9196
27.530,74.4019
27.540,77.8259
27.550,79.4198
27.560,71.7741
27.570,74.2915
27.580,76.3065
27.590,75.1787
27.600,76.4033
27.610,71.9589
27.620,70.3346
27.630,75.4133
27.640,78.3262
27.650,70.9821
27.660,67.8378
27.670,73.6598
27.680,77.0068
27.690,77.0993
27.700,73.8732
27.710,73.6259
27.720,75.4368
27.730,78.3426
27.740,69.1276
27.750,75.5556
27.760,70.9393
27.770,74.6945
27.780,68.8442
27.790,75.1619
27.800,68.6158
27.810,74.2929
27.820,67.7908
27.830,65.8913
27.840,67.7355
27.850,70.4391
27.860,74.2172
27.870,64.2185
27.880,67.8246
27.890,64.1485
27.900,74.3411
27.910,68.0551
27.920,70.5071
27.930,73.6263
27.940,70.6909
27.950,69.3652
27.960,64.1472
27.970,64.9751
27.980,64.9786
27.990,62.7100
28.000,65.3609
28.010,63.4262
28.020,64.9233
28.030,60.3427
28.040,63.5820
28.050,64.8921
28.060,65.5103
28.070,64.2487
28.080,64.0982
28.090,64.8178
28.100,65.3049
28.110,61.4875
28.120,62.4895
28.130,63.7717
28.140,70.2976
28.150,58.8974
28.160,63.7968
28.170,61.3928
28.180,64.1432
28.190,60.6523
28.200,67.5996
28.210,71.1265
28.220,70.5433
28.230,67.9527
28.240,65.5726
28.250,65.3630
28.260,59.5812
28.270,63.6750
28.280,61.9144
28.290,59.0350
28.300,70.7966
28.310,63.1552
28.320,64.2343
28.330,59.2238
28.340,65.2493
28.350,63.6887
28.360,69.7519
28.370,66.7876
28.380,69.1151
28.390,64.3471
28.400,72.1569
28.410,68.2577
28.420,69.7879
28.430,62.4014
28.440,61.8981
28.450,61.2248
28.460,66.9692
28.470,72.1655
28.480,66.5370
28.490,64.9772
28.500,69.0816
28.510,68.6480
28.520,65.8750
28.530,73.9954
28.540,74.9688
28.550,74.6381
28.560,71.4805
28.570,74.1385
28.580,72.4487
28.590,68.4885
28.600,67.4445
28.610,68.5804
28.620,77.2191
28.630,77.2758
28.640,66.9288
28.650,75.7192
28.660,75.7163
28.670,72.4039
28.680,73.2509
28.690,72.0042
28.700,78.9126
28.710,72.4112
28.720,72.2134
28.730,78.0676
28.740,75.3670
28.750,78.3259
28.760,70.9082
28.770,75.8731
28.780,77.7333
28.790,73.7425
28.800,77.1053
28.810,71.5092
28.820,71.7379
28.830,74.1484
28.840,75.7827
28.850,73.0795
28.860,79.9562
28.870,68.6709
28.880,76.6410
28.890,81.0572
28.900,81.3328
28.910,73.2656
28.920,70.5048
28.930,79.4666
28.940,79.5683
28.950,71.9023
28.960,69.8321
28.970,73.5488
28.980,72.7448
28.990,69.4004
29.000,76.4676
29.010,78.3489
29.020,81.2157
29.030,69.7741
29.040,76.2952
29.050,72.6761
29.060,77.0389
29.070,70.4734
29.080,74.6659
29.090,73.7392
29.100,76.2945
29.110,71.8968
29.120,71.4638
29.130,74.9591
29.140,69.9019
29.150,77.2922
29.160,76.1011
29.170,76.5315
29.180,70.4457
29.190,75.9242
29.200,75.9594
29.210,71.8258
29.220,74.0438
29.230,75.6176
29.240,72.5846
29.250,67.8429
29.260,68.8244
29.270,75.9760
29.280,70.4618
29.290,73.7936
29.300,69.2911
29.310,75.9203
29.320,64.1138
29.330,70.8232
29.340,71.0583
29.350,70.6481
29.360,63.8785
29.370,62.8063
29.380,71.4990
29.390,62.5550
29.400,69.7479
29.410,69.4399
29.420,63.0339
29.430,63.9089
29.440,65.6154
29.450,64.8330
29.460,64.1359
29.470,65.3227
29.480,66.5575
29.490,64.4851
29.500,63.5381
29.510,69.5391
29.520,64.7477
29.530,70.3755
29.540,60.9769
29.550,60.4252
29.560,70.9636
29.570,66.7754
29.580,65.7393
29.590,69.4218
29.600,71.2295
29.610,68.8890
29.620,69.1298
29.630,63.5684
29.640,69.8961
29.650,62.1828
29.660,67.5406
29.670,67.4524
29.680,70.1698
29.690,70.2510
29.700,71.1960
29.710,70.6071
29.720,68.3297
29.730,63.4158
29.740,60.9358
29.750,69.2444
29.760,64.9667
29.770,59.8328
29.780,63.4905
29.790,64.7445
29.800,60.6958
29.810,71.9370
29.820,63.1705
29.830,66.3595
29.840,64.1497
29.850,65.3808
29.860,73.4013
29.870,71.3168
29.880,72.6759
29.890,72.2902
29.900,64.9423
29.910,67.5785
29.920,66.5002
29.930,69.8330
29.940,68.9862
29.950,63.4824
29.960,63.6079
29.970,73.8245
29.980,74.3420
29.990,69.9753
30.000,69.4863
30.010,68.0231
30.020,73.9972
30.030,71.9619
30.040,80.0409
30.050,69.3935
30.060,82.6112
30.070,74.9086
30.080,82.0732
30.090,79.6371
30.100,77.0060
30.110,81.0881
30.120,80.2132
30.130,80.6784
30.140,89.8720
30.150,92.4317
30.160,84.3065
30.170,92.1351
30.180,91.8651
30.190,84.3081
30.200,89.3983
30.210,90.0956
30.220,94.7322
30.230,100.4156
30.240,95.1835
30.250,95.6194
30.260,101.9574
30.270,94.8256
30.280,104.1971
30.290,95.8631
30.300,96.9138
30.310,100.0023
30.320,110.3660
30.330,110.6158
30.340,102.1948
30.350,101.5765
30.360,106.5873
30.370,109.8569
30.380,109.8507
30.390,115.8909
30.400,109.9670
30.410,115.0672
30.420,118.6128
30.430,117.0247
30.440,110.5192
30.450,112.6062
30.460,113.1906
30.470,125.5985
30.480,119.2471
30.490,122.3836
30.500,127.8051
30.510,125.2484
30.520,130.8493
30.530,124.3131
30.540,133.5035
30.550,131.4462
30.560,133.5606
30.570,135.7842
30.580,132.2092
30.590,129.9729
30.600,136.5441
30.610,136.2649
30.620,142.2555
30.630,140.7111
30.640,138.9559
30.650,135.6109
30.660,136.0212
30.670,145.9809
30.680,139.4313
30.690,138.9772
30.700,142.7944
30.710,151.1114
30.720,148.3204
30.730,149.5502
30.740,149.1590
30.750,144.3723
30.760,156.5643
30.770,150.4325
30.780,157.2295
30.790,154.7833
30.800,155.5879
30.810,161.4060
30.820,156.2608
30.830,154.6766
30.840,155.0853
30.850,165.4884
30.860,158.5725
30.870,163.5885
30.880,169.6115
30.890,167.9830
30.900,166.9605
30.910,170.5659
30.920,161.8861
30.930,174.7649
30.940,167.8906
30.950,169.6252
30.960,167.1379
30.970,171.4442
30.980,179.7602
30.990,180.6325
31.000,170.6463
31.010,172.0697
31.020,180.2039
31.030,179.1625
31.040,176.6934
31.050,178.1794
31.060,180.5578
31.070,181.5368
31.080,181.8270
31.090,178.2469
31.100,179.1698
31.110,172.9981
31.120,174.3933
31.130,176.4354
31.140,179.7048
31.150,170.2719
31.160,178.9681
31.170,177.9053
31.180,175.2326
31.190,172.4320
31.200,177.6968
31.210,177.3015
31.220,178.3467
31.230,179.5335
31.240,173.1087
31.250,177.7515
31.260,171.9555
31.270,178.4269
31.280,170.5634
31.290,173.1455
31.300,175.0168
31.310,181.0733
31.320,172.3376
31.330,170.0599
31.340,174.6280
31.350,179.0856
31.360,181.3869
31.370,177.2317
31.380,177.3149
31.390,175.2592
31.400,170.4617
31.410,170.7557
31.420,177.4100
31.430,175.4723
31.440,173.9180
31.450,179.7778
31.460,176.4011
31.470,171.2554
31.480,171.3684
31.490,181.7371
31.500,178.5059
31.510,173.4198
31.520,172.8049
31.530,172.0305
31.540,177.2009
31.550,172.7417
31.560,177.3668
31.570,180.0567
31.580,170.7575
31.590,177.4563
31.600,181.2144
31.610,178.2619
31.620,181.2772
31.630,178.1716
31.640,172.1025
31.650,179.3676
31.660,181.7988
31.670,178.6175
31.680,177.8066
31.690,172.9798
31.700,180.4672
31.710,181.8235
31.720,172.3624
31.730,171.4515
31.740,175.8606
31.750,171.5137
31.760,182.9409
31.770,172.4597
31.780,181.5234
31.790,177.6813
31.800,176.4904
31.810,171.8310
31.820,173.1290
31.830,176.1410
31.840,172.5872
31.850,182.3528
31.860,178.2533
31.870,172.1246
31.880,171.8180
31.890,170.6291
31.900,181.5783
31.910,181.8585
31.920,170.9093
31.930,183.0209
31.940,170.9531
31.950,177.8290
31.960,173.9256
31.970,173.6031
31.980,174.5736
31.990,180.6363
32.000,71.2952
32.010,77.1581
32.020,67.7837
32.030,67.2307
32.040,67.2504
32.050,74.7196
32.060,77.1472
32.070,78.5480
32.080,78.1815
32.090,72.2596
32.100,71.5724
32.110,74.6351
32.120,73.6827
32.130,64.6125
32.140,69.8167
32.150,69.3619
32.160,68.1544
32.170,67.1910
32.180,74.6054
32.190,66.2321
32.200,74.7018
32.210,71.9086
32.220,67.9976
32.230,67.5159
32.240,62.4928
32.250,65.7796
32.260,71.6626
32.270,62.1211
32.280,64.4354
32.290,71.8285
32.300,66.6345
32.310,63.5307
32.320,71.6607
32.330,67.9045
32.340,67.4650
32.350,71.0733
32.360,67.0543
32.370,72.7372
32.380,62.9190
32.390,63.3082
32.400,59.8466
32.410,64.2710
32.420,65.4033
32.430,70.7364
32.440,67.3305
32.450,67.6861
32.460,64.1746
32.470,63.6520
32.480,63.4013
32.490,62.8367
32.500,61.9035
32.510,68.6765
32.520,59.8496
32.530,70.8505
32.540,68.8974
32.550,64.4987
32.560,59.7665
32.570,66.6573
32.580,65.2010
32.590,65.7553
32.600,61.1006
32.610,61.7328
32.620,72.5385
32.630,62.2290
32.640,69.0700
32.650,65.3994
32.660,65.1980
32.670,71.7350
32.680,63.9229
32.690,64.4628
32.700,65.2133
32.710,63.4728
32.720,66.6451
32.730,62.3013
32.740,70.7500
32.750,71.0198
32.760,65.4586
32.770,62.9900
32.780,70.7291
32.790,68.2501
32.800,69.9805
32.810,65.1785
32.820,69.3955
32.830,66.0890
32.840,73.8948
32.850,64.2649
32.860,74.3811
32.870,75.3284
32.880,76.9076
32.890,72.0250
32.900,69.1441
32.910,74.8421
32.920,78.0480
32.930,70.9231
32.940,77.3359
32.950,78.2126
32.960,78.8975
32.970,70.7393
32.980,74.3433
32.990,72.3690
33.000,72.0533
33.010,76.4642
33.020,75.7366
33.030,69.0614
33.040,77.7096
33.050,68.8719
33.060,74.8368
33.070,78.2402
33.080,72.9695
33.090,75.8288
33.100,79.1763
33.110,74.6859
33.120,81.3244
33.130,70.3505
33.140,75.9490
33.150,78.3725
33.160,70.3048
33.170,78.5088
33.180,72.2211
33.190,72.3988
33.200,75.4551
33.210,79.4803
33.220,80.9454
33.230,74.9366
33.240,75.4515
33.250,81.8452
33.260,80.9067
33.270,72.7583
33.280,72.3344
33.290,70.9526
33.300,79.3934
33.310,71.4903
33.320,81.6312
33.330,78.6725
33.340,76.3397
33.350,78.0440
33.360,80.0289
33.370,80.2213
33.380,73.8868
33.390,69.1250
33.400,77.2304
33.410,68.4116
33.420,78.5513
33.430,71.1669
33.440,76.4708
33.450,75.9970
33.460,77.4502
33.470,75.0786
33.480,68.8377
33.490,76.8698
33.500,70.7740
33.510,66.4886
33.520,68.6306
33.530,67.6300
33.540,68.3162
33.550,70.4539
33.560,68.2018
33.570,74.4223
33.580,75.3831
33.590,69.6274
33.600,69.7535
33.610,64.4618
33.620,76.0812
33.630,74.3843
33.640,74.0191
33.650,66.0139
33.660,70.2286
33.670,67.7642
33.680,74.5506
33.690,65.6581
33.700,66.6842
33.710,71.8810
33.720,64.3117
33.730,68.9777
33.740,69.9183
33.750,72.3792
33.760,64.7071
33.770,68.2751
33.780,61.7129
33.790,70.7513
33.800,70.9958
33.810,69.4759
33.820,66.1386
33.830,67.1578
33.840,66.0801
33.850,69.9903
33.860,65.0622
33.870,72.3300
33.880,60.2499
33.890,67.6364
33.900,64.9448
33.910,67.6641
33.920,65.4987
33.930,60.9994
33.940,62.7237
33.950,65.8654
33.960,60.4818
33.970,71.1905
33.980,64.4799
33.990,68.0344
34.000,66.8198
34.010,69.8795
34.020,72.2424
34.030,63.8678
34.040,64.4325
34.050,71.8904
34.060,71.6421
34.070,65.9154
34.080,69.7937
34.090,62.3040
34.100,63.5172
34.110,68.5467
34.120,70.5014
34.130,71.6295
34.140,65.2863
34.150,69.2632
34.160,65.4108
34.170,64.0965
34.180,64.0761
34.190,67.6160
34.200,72.5232
34.210,65.7366
34.220,75.3084
34.230,68.2828
34.240,71.4083
34.250,72.3737
34.260,69.2364
34.270,75.8271
34.280,65.4924
34.290,71.9896
34.300,71.4724
34.310,72.2946
34.320,70.8873
34.330,76.1000
34.340,70.7195
34.350,75.1230
34.360,77.1217
34.370,71.7559
34.380,79.1656
34.390,76.8760
34.400,74.5943
34.410,78.9814
34.420,72.4863
34.430,75.2271
34.440,72.7620
34.450,75.9840
34.460,76.3311
34.470,77.9976
34.480,79.0268
34.490,71.1797
34.500,77.1338
34.510,78.9931
34.520,73.5536
34.530,74.4921
34.540,69.9274
34.550,77.1341
34.560,75.9139
34.570,81.5884
34.580,72.9625
34.590,80.0317
34.600,72.2521
34.610,81.0562
34.620,79.1217
34.630,72.5167
34.640,79.3024
34.650,77.4520
34.660,78.9604
34.670,81.4518
34.680,79.3108
34.690,71.8108
34.700,70.0872
34.710,81.0025
34.720,75.4190
34.730,73.2841
34.740,76.1709
34.750,78.5158
34.760,76.9048
34.770,74.9098
34.780,73.3420
34.790,71.4252
34.800,71.1261
34.810,81.2562
34.820,78.4375
34.830,76.7702
34.840,80.2585
34.850,76.7007
34.860,73.5704
34.870,69.3670
34.880,80.2444
34.890,72.1371
34.900,79.4298
34.910,72.6112
34.920,73.0898
34.930,71.9506
34.940,77.2085
34.950,69.3814
34.960,67.7766
34.970,76.5695
34.980,74.0090
34.990,74.7743
35.000,68.4042
35.010,70.3129
35.020,73.0317
35.030,67.2045
35.040,74.4467
35.050,70.3135
35.060,73.4146
35.070,69.5503
35.080,67.7441
35.090,64.1542
35.100,64.1320
35.110,65.3853
35.120,69.2101
35.130,64.8839
35.140,73.4909
35.150,65.1176
35.160,62.6036
35.170,71.1232
35.180,64.8376
35.190,65.0525
35.200,64.2786
35.210,69.8125
35.220,66.0454
35.230,70.0889
35.240,68.2050
35.250,61.9905
35.260,68.1188
35.270,65.4192
35.280,68.3977
35.290,65.1766
35.300,62.6155
35.310,65.7435
35.320,68.0680
35.330,68.0675
35.340,67.9603
35.350,59.7541
35.360,61.7179
35.370,66.4504
35.380,68.8197
35.390,71.9869
35.400,65.2655
35.410,68.8247
35.420,68.3981
35.430,70.5281
35.440,69.6733
35.450,69.8505
35.460,68.1171
35.470,73.0012
35.480,62.1642
35.490,62.4656
35.500,65.5425
35.510,73.1619
35.520,72.4566
35.530,63.9456
35.540,71.4321
35.550,63.2716
35.560,64.7733
35.570,63.4761
35.580,74.2096
35.590,68.4367
35.600,67.8628
35.610,73.2526
35.620,75.5740
35.630,64.9419
35.640,65.7070
35.650,69.2257
35.660,71.8692
35.670,68.0477
35.680,68.5387
35.690,71.5971
35.700,71.6195
35.710,64.9855
35.720,77.6584
35.730,68.7660
35.740,71.3739
35.750,70.8528
35.760,69.0814
35.770,68.8905
35.780,78.0640
35.790,68.4117
35.800,68.2650
35.810,67.3749
35.820,78.7880
35.830,77.3830
35.840,76.7477
35.850,74.0712
35.860,71.3522
35.870,68.9051
35.880,77.8327
35.890,77.9089
35.900,70.1311
35.910,76.2863
35.920,74.8925
35.930,80.8719
35.940,73.4302
35.950,72.1912
35.960,73.2710
35.970,78.2056
35.980,80.1835
35.990,78.8861
36.000,75.5000
36.010,71.6466
36.020,75.8880
36.030,74.4706
36.040,80.1483
36.050,80.2241
36.060,78.0531
36.070,70.5026
36.080,82.4034
36.090,79.0223
36.100,76.7493
36.110,73.6682
36.120,81.4115
36.130,75.6789
36.140,79.3309
36.150,75.1275
36.160,80.5823
36.170,75.6287
36.180,74.8438
36.190,70.5253
36.200,71.8586
36.210,73.3983
36.220,71.4645
36.230,76.4319
36.240,77.2593
36.250,80.6639
36.260,76.7190
36.270,78.0036
36.280,75.1858
36.290,76.5198
36.300,71.2087
36.310,80.1915
36.320,73.0037
36.330,78.4077
36.340,71.5421
36.350,69.5823
36.360,73.5574
36.370,66.6446
36.380,73.8263
36.390,76.3173
36.400,70.7075
36.410,71.5858
36.420,66.7779
36.430,76.2159
36.440,69.2377
36.450,72.9807
36.460,66.0088
36.470,73.3382
36.480,72.9026
36.490,73.9668
36.500,73.4867
36.510,64.2022
36.520,70.7603
36.530,72.7246
36.540,69.0780
36.550,67.6091
36.560,63.6458
36.570,63.1137
36.580,70.1646
36.590,64.0221
36.600,74.2730
36.610,62.0525
36.620,65.5056
36.630,68.9052
36.640,66.8956
36.650,71.7833
36.660,70.6693
36.670,67.1687
36.680,64.7216
36.690,70.8687
36.700,63.1637
36.710,65.2683
36.720,66.1232
36.730,67.2966
36.740,64.3485
36.750,65.3735
36.760,65.6607
36.770,71.6357
36.780,66.0668
36.790,63.9293
36.800,60.6575
36.810,65.0101
36.820,60.7891
36.830,69.2993
36.840,63.7497
36.850,72.0779
36.860,71.2984
36.870,72.0306
36.880,69.9843
36.890,73.0763
36.900,68.5232
36.910,71.6904
36.920,71.5619
36.930,65.4845
36.940,66.3830
36.950,61.7553
36.960,67.6237
36.970,67.7960
36.980,69.5486
36.990,72.4335
37.000,63.7835
37.010,64.6407
37.020,75.3725
37.030,73.1459
37.040,75.2134
37.050,75.9655
37.060,74.0907
37.070,68.0577
37.080,67.8819
37.090,66.8886
37.100,69.3250
37.110,66.4981
37.120,72.4225
37.130,75.4401
37.140,68.7086
37.150,73.7519
37.160,68.5447
37.170,77.6539
37.180,70.9462
37.190,66.3284
37.200,73.0813
37.210,75.2422
37.220,73.5637
37.230,72.7621
37.240,69.4473
37.250,69.4041
37.260,71.4227
37.270,68.9843
37.280,74.4917
37.290,79.7294
37.300,79.8802
37.310,76.8137
37.320,69.1294
37.330,78.0739
37.340,81.8565
37.350,70.9597
37.360,75.8415
37.370,79.0875
37.380,73.1830
37.390,76.6441
37.400,72.4328
37.410,80.2059
37.420,80.8401
37.430,75.8858
37.440,74.8608
37.450,73.6598
37.460,81.2702
37.470,77.3096
37.480,81.9937
37.490,82.5511
37.500,71.5253
37.510,73.6630
37.520,79.7463
37.530,70.7570
37.540,79.6158
37.550,76.4898
37.560,70.4736
37.570,80.0572
37.580,81.5429
37.590,81.6319
37.600,78.2784
37.610,71.9560
37.620,72.9445
37.630,73.3758
37.640,72.6206
37.650,78.4162
37.660,70.1550
37.670,74.2659
37.680,73.3984
37.690,80.1722
37.700,77.6926
37.710,74.5144
37.720,76.2663
37.730,73.5423
37.740,69.0800
37.750,70.4538
37.760,69.9211
37.770,70.0390
37.780,73.6270
37.790,74.2052
37.800,70.0765
37.810,72.1746
37.820,77.8570
37.830,75.9615
37.840,66.2827
37.850,69.4252
37.860,73.4945
37.870,73.2349
37.880,73.9132
37.890,73.1450
37.900,74.6825
37.910,68.1581
37.920,71.7218
37.930,73.8102
37.940,72.8337
37.950,72.8322
37.960,72.7297
37.970,70.4203
37.980,66.4509
37.990,62.6735
38.000,64.1409
38.010,65.5639
38.020,74.6215
38.030,64.1931
38.040,66.5225
38.050,73.9620
38.060,71.1290
38.070,61.6038
38.080,66.1127
38.090,65.3553
38.100,61.9908
38.110,63.9358
38.120,64.2635
38.130,68.2602
38.140,63.6252
38.150,67.5845
38.160,60.7231
38.170,60.8947
38.180,66.0156
38.190,62.0254
38.200,70.1481
38.210,70.8114
38.220,62.8244
38.230,69.2180
38.240,66.3007
38.250,71.0701
38.260,71.7022
38.270,70.8679
38.280,67.6633
38.290,66.5491
38.300,70.7486
38.310,72.9078
38.320,66.7251
38.330,68.0915
38.340,73.1830
38.350,66.8877
38.360,62.1440
38.370,62.2512
38.380,72.7536
38.390,64.9473
38.400,71.4713
38.410,70.8553
38.420,75.0435
38.430,67.1182
38.440,75.3713
38.450,65.7249
38.460,70.8191
38.470,66.8836
38.480,74.6489
38.490,65.1496
38.500,67.4908
38.510,68.1279
38.520,65.7148
38.530,69.9735
38.540,74.5556
38.550,65.9140
38.560,74.2535
38.570,77.8193
38.580,72.7710
38.590,71.8704
38.600,67.2879
38.610,79.1184
38.620,78.3181
38.630,78.6760
38.640,70.5232
38.650,70.6414
38.660,69.0943
38.670,77.7787
38.680,78.9920
38.690,69.3677
38.700,68.8029
38.710,75.5736
38.720,74.3403
38.730,75.8487
38.740,73.7131
38.750,72.3457
38.760,70.5508
38.770,80.4034
38.780,75.8320
38.790,74.8940
38.800,77.0415
38.810,80.3674
38.820,75.6558
38.830,81.5538
38.840,76.0569
38.850,76.5145
38.860,77.5931
38.870,83.2047
38.880,80.3863
38.890,74.5317
38.900,78.4956
38.910,70.8222
38.920,72.0234
38.930,79.6264
38.940,74.8974
38.950,77.2214
38.960,81.2767
38.970,79.3273
38.980,81.5028
38.990,76.9478
39.000,81.1468
39.010,77.4761
39.020,76.3132
39.030,74.4589
39.040,70.4232
39.050,76.2337
39.060,82.0434
39.070,71.8586
39.080,69.7733
39.090,77.1274
39.100,70.6537
39.110,80.8213
39.120,74.5873
39.130,70.5974
39.140,72.1053
39.150,79.8883
39.160,75.8492
39.170,69.3590
39.180,75.9699
39.190,72.4062
39.200,68.7333
39.210,74.0506
39.220,67.2605
39.230,67.9278
39.240,72.6187
39.250,70.7887
39.260,68.0527
39.270,75.7949
39.280,67.5682
39.290,73.6941
39.300,69.1654
39.310,66.4491
39.320,77.0070
39.330,70.4474
39.340,70.2599
39.350,66.0423
39.360,67.7054
39.370,66.3547
39.380,66.3668
39.390,74.2460
39.400,69.6293
39.410,64.6057
39.420,64.6133
39.430,73.6017
39.440,71.0283
39.450,65.0893
39.460,67.7111
39.470,67.0944
39.480,70.2843
39.490,73.7359
39.500,73.2771
39.510,70.2496
39.520,63.8237
39.530,69.3598
39.540,73.3045
39.550,67.5037
39.560,71.4147
39.570,68.2268
39.580,63.9783
39.590,66.4312
39.600,61.2893
39.610,69.4073
39.620,69.8535
39.630,69.0098
39.640,69.2479
39.650,67.5592
39.660,68.5419
39.670,71.4119
39.680,63.7482
39.690,72.1018
39.700,68.8887
39.710,67.8502
39.720,67.2249
39.730,69.1803
39.740,70.6787
39.750,73.3381
39.760,67.8285
39.770,71.1562
39.780,63.2512
39.790,71.1744
39.800,66.0857
39.810,71.5187
39.820,64.7483
39.830,72.0565
39.840,67.9327
39.850,72.2695
39.860,74.5512
39.870,70.0947
39.880,66.5332
39.890,74.7363
39.900,74.8071
39.910,75.1432
39.920,69.5939
39.930,73.3537
39.940,77.0827
39.950,77.3139
39.960,77.5594
39.970,77.3879
39.980,68.7245
39.990,68.1551
40.000,70.0698
40.010,75.2446
40.020,66.6145
40.030,71.1282
40.040,72.2273
40.050,67.4024
40.060,75.5544
40.070,70.5883
40.080,74.7856
40.090,73.9950
40.100,70.7276
40.110,73.3994
40.120,78.1515
40.130,71.1966
40.140,69.5710
40.150,74.4414
40.160,79.0257
40.170,70.6858
40.180,76.6901
40.190,79.9577
40.200,77.7208
40.210,73.3277
40.220,80.1299
40.230,79.1245
40.240,79.3957
40.250,73.8047
40.260,80.6464
40.270,78.5568
40.280,75.2682
40.290,79.6739
40.300,82.6030
40.310,82.6324
40.320,79.9526
40.330,79.4183
40.340,80.0607
40.350,83.7107
40.360,83.5014
40.370,76.5152
40.380,81.4376
40.390,75.9357
40.400,80.3086
40.410,82.8539
40.420,71.6024
40.430,77.7908
40.440,71.2148
40.450,79.3435
40.460,80.0465
40.470,76.5004
40.480,73.9462
40.490,75.1581
40.500,80.9503
40.510,79.0511
40.520,76.5928
40.530,76.0149
40.540,75.7883
40.550,70.9432
40.560,74.2145
40.570,79.2698
40.580,70.5343
40.590,76.8791
40.600,77.4424
40.610,69.3732
40.620,69.4864
40.630,68.0512
40.640,77.5495
40.650,73.7233
40.660,67.6076
40.670,78.1762
40.680,74.9088
40.690,74.3747
40.700,67.6740
40.710,70.6234
40.720,67.7949
40.730,70.1518
40.740,66.0502
40.750,74.6102
40.760,65.4752
40.770,67.3030
40.780,75.9014
40.790,76.0639
40.800,75.6694
40.810,73.7656
40.820,66.0428
40.830,76.0381
40.840,73.4219
40.850,67.0244
40.860,72.0258
40.870,74.4448
40.880,67.8578
40.890,70.5891
40.900,66.6507
40.910,62.2089
40.920,65.8272
40.930,63.1932
40.940,69.5835
40.950,71.0089
40.960,63.8170
40.970,64.9734
40.980,69.0951
40.990,72.0108
41.000,66.1529
41.010,65.1236
41.020,71.7254
41.030,70.8637
41.040,61.3858
41.050,64.8478
41.060,64.8356
41.070,65.4444
41.080,68.7390
41.090,67.0072
41.100,64.4118
41.110,68.8133
41.120,71.6835
41.130,65.5036
41.140,73.7217
41.150,64.7409
41.160,63.8382
41.170,74.1936
41.180,64.4618
41.190,68.7434
41.200,63.0997
41.210,63.7164
41.220,65.2821
41.230,64.9095
41.240,62.9293
41.250,64.2682
41.260,74.0890
41.270,63.5595
41.280,74.3785
41.290,71.1244
41.300,75.0193
41.310,65.7509
41.320,64.2161
41.330,73.7799
41.340,66.2653
41.350,71.7494
41.360,68.8639
41.370,75.0688
41.380,70.2352
41.390,70.3046
41.400,72.1760
41.410,72.7690
41.420,74.9247
41.430,72.5139
41.440,77.3892
41.450,70.2568
41.460,67.7607
41.470,69.9220
41.480,74.1766
41.490,68.7987
41.500,74.6198
41.510,73.5936
41.520,72.6449
41.530,74.8877
41.540,72.2217
41.550,78.7480
41.560,77.8925
41.570,78.4278
41.580,76.2736
41.590,73.5880
41.600,76.2513
41.610,79.2721
41.620,71.4030
41.630,71.2145
41.640,81.8593
41.650,78.5335
41.660,74.7853
41.670,74.6634
41.680,75.4696
41.690,79.7711
41.700,83.2344
41.710,80.6995
41.720,71.9750
41.730,76.2585
41.740,71.8430
41.750,80.5777
41.760,78.1272
41.770,77.2112
41.780,75.7272
41.790,71.4207
41.800,82.9676
41.810,72.3774
41.820,73.3976
41.830,77.2337
41.840,74.8654
41.850,78.0307
41.860,72.4301
41.870,78.9433
41.880,79.7524
41.890,71.0750
41.900,74.7965
41.910,80.5932
41.920,78.1355
41.930,81.9612
41.940,72.8528
41.950,81.4556
41.960,79.0023
41.970,74.7199
41.980,72.0411
41.990,81.0747
42.000,81.7616
42.010,76.7159
42.020,80.6396
42.030,70.1698
42.040,69.8899
42.050,69.3842
42.060,75.3483
42.070,70.2719
42.080,76.5050
42.090,69.7553
42.100,77.7737
42.110,69.8484
42.120,69.5307
42.130,68.1310
42.140,71.2709
42.150,77.8737
42.160,75.6454
42.170,74.3629
42.180,68.5520
42.190,72.4142
42.200,72.0428
42.210,71.8784
42.220,64.8933
42.230,70.4021
42.240,76.8283
42.250,66.4529
42.260,75.6542
42.270,73.9377
42.280,69.6834
42.290,70.4733
42.300,70.6705
42.310,74.6521
42.320,71.8404
42.330,74.8525
42.340,70.2302
42.350,73.8660
42.360,74.0827
42.370,69.2988
42.380,66.8664
42.390,63.3059
42.400,64.9964
42.410,69.8168
42.420,69.7092
42.430,67.6925
42.440,67.8724
42.450,66.2332
42.460,69.1349
42.470,72.9021
42.480,70.8366
42.490,61.5217
42.500,61.9209
42.510,73.9032
42.520,64.8439
42.530,73.0236
42.540,72.6261
42.550,73.1150
42.560,63.0154
42.570,65.4909
42.580,69.4213
42.590,67.7884
42.600,71.4110
42.610,73.7952
42.620,64.3904
42.630,71.2830
42.640,70.7911
42.650,70.0232
42.660,68.7312
42.670,73.1537
42.680,63.7994
42.690,72.3711
42.700,67.0384
42.710,63.7847
42.720,67.4391
42.730,70.8066
42.740,74.5090
42.750,72.5416
42.760,71.3832
42.770,71.7689
42.780,75.5764
42.790,70.1741
42.800,75.4898
42.810,76.2633
42.820,70.2651
42.830,71.2310
42.840,76.7053
42.850,66.8732
42.860,72.6141
42.870,77.1001
42.880,76.7011
42.890,74.8844
42.900,70.1429
42.910,70.7744
42.920,78.4928
42.930,72.2119
42.940,70.7267
42.950,69.0060
42.960,77.0525
42.970,71.3161
42.980,81.8433
42.990,73.0548
43.000,80.3903
43.010,75.4213
43.020,72.4118
43.030,76.6971
43.040,76.1615
43.050,80.6769
43.060,70.8112
43.070,72.1015
43.080,80.0015
43.090,77.3266
43.100,77.5543
43.110,77.1312
43.120,74.8243
43.130,81.9424
43.140,80.7430
43.150,71.4342
43.160,82.1254
43.170,82.3616
43.180,79.3036
43.190,80.6823
43.200,71.8178
43.210,80.3328
43.220,82.7284
43.230,72.9821
43.240,82.1126
43.250,71.9446
43.260,83.0822
43.270,82.6176
43.280,77.2020
43.290,72.1435
43.300,71.4927
43.310,78.7279
43.320,79.1931
43.330,73.5166
43.340,71.4531
43.350,82.5070
43.360,72.7907
43.370,83.0935
43.380,77.6408
43.390,80.0166
43.400,74.8449
43.410,72.4298
43.420,80.8565
43.430,74.1778
43.440,78.2853
43.450,74.8615
43.460,71.7333
43.470,77.7251
43.480,75.2055
43.490,80.9681
43.500,75.9517
43.510,74.1960
43.520,77.3000
43.530,72.3364
43.540,70.1378
43.550,79.6424
43.560,75.7306
43.570,73.3732
43.580,77.0641
43.590,69.8804
43.600,70.5120
43.610,70.6696
43.620,73.6677
43.630,69.7105
43.640,74.2615
43.650,65.4994
43.660,75.0621
43.670,75.9594
43.680,68.2861
43.690,75.1397
43.700,64.2821
43.710,71.9586
43.720,71.0215
43.730,73.8411
43.740,74.6822
43.750,73.6225
43.760,71.1293
43.770,68.5640
43.780,73.7743
43.790,64.7445
43.800,72.0708
43.810,63.2571
43.820,73.8708
43.830,69.8939
43.840,71.2568
43.850,68.1821
43.860,70.5310
43.870,65.2059
43.880,64.7070
43.890,68.6058
43.900,71.8601
43.910,70.1914
43.920,71.7869
43.930,67.7365
43.940,70.5759
43.950,71.8741
43.960,68.0677
43.970,66.7491
43.980,62.5227
43.990,74.2147
44.000,71.3045
44.010,61.9023
44.020,68.7393
44.030,72.0614
44.040,67.9198
44.050,67.1661
44.060,64.4243
44.070,64.5193
44.080,74.6626
44.090,65.5931
44.100,71.2036
44.110,64.6535
44.120,67.9969
44.130,71.7344
44.140,71.0886
44.150,76.4416
44.160,69.2694
44.170,75.2921
44.180,69.3848
44.190,76.3651
44.200,68.2461
44.210,65.4848
44.220,71.9578
44.230,67.4632
44.240,71.0890
44.250,77.3369
44.260,78.5772
44.270,70.0294
44.280,77.6576
44.290,73.2190
44.300,76.2507
44.310,72.1686
44.320,72.8310
44.330,69.5986
44.340,75.8373
44.350,77.6279
44.360,68.7251
44.370,79.5028
44.380,78.4502
44.390,70.4093
44.400,69.5409
44.410,77.6315
44.420,72.5328
44.430,79.5665
44.440,70.9879
44.450,76.5978
44.460,77.2063
44.470,71.7593
44.480,80.5551
44.490,78.2276
44.500,77.4974
44.510,76.4012
44.520,75.5101
44.530,83.4951
44.540,83.6580
44.550,72.4652
44.560,83.4741
44.570,82.0256
44.580,73.7029
44.590,81.3729
44.600,72.7607
44.610,77.1123
44.620,78.1655
44.630,78.4166
44.640,78.0061
44.650,72.6743
44.660,77.8019
44.670,81.6430
44.680,78.0274
44.690,78.9726
44.700,72.4710
44.710,76.0441
44.720,72.7330
44.730,72.8229
44.740,75.9403
44.750,75.8641
44.760,75.4990
44.770,74.7010
44.780,75.4110
44.790,82.2521
44.800,80.6641
44.810,72.0384
44.820,78.4572
44.830,74.9171
44.840,73.3032
44.850,80.6553
44.860,81.7370
44.870,81.2031
44.880,80.0510
44.890,80.6745
44.900,79.1518
44.910,71.3902
44.920,70.8002
44.930,73.4939
44.940,75.0331
44.950,74.8609
44.960,71.0634
44.970,74.1336
44.980,74.0333
44.990,76.3635
45.000,68.6956
45.010,77.9569
45.020,71.6437
45.030,81.5006
45.040,81.1814
45.050,78.8280
45.060,79.8299
45.070,77.8911
45.080,83.6337
45.090,88.2232
45.100,85.9104
45.110,84.3974
45.120,84.2340
45.130,88.6032
45.140,83.0082
45.150,93.5267
45.160,89.6465
45.170,87.0194
45.180,91.2321
45.190,95.0792
45.200,90.7413
45.210,95.4385
45.220,91.5057
45.230,101.5415
45.240,93.6893
45.250,104.6886
45.260,98.2268
45.270,106.9016
45.280,107.1293
45.290,109.6759
45.300,101.2640
45.310,102.5957
45.320,107.2937
45.330,115.4795
45.340,115.6819
45.350,110.5012
45.360,109.6711
45.370,116.4748
45.380,118.1583
45.390,119.6924
45.400,112.1563
45.410,112.0786
45.420,116.4914
45.430,119.1549
45.440,123.8429
45.450,126.3885
45.460,123.8105
45.470,127.5000
45.480,131.9569
45.490,133.0477
45.500,130.9675
45.510,129.1210
45.520,132.4391
45.530,131.4928
45.540,130.0764
45.550,139.1759
45.560,131.8956
45.570,138.8630
45.580,139.9242
45.590,141.3796
45.600,134.6133
45.610,145.1411
45.620,136.7686
45.630,137.0843
45.640,149.1694
45.650,147.6398
45.660,143.8074
45.670,144.4451
45.680,151.8132
45.690,152.2540
45.700,148.4775
45.710,156.7661
45.720,158.2353
45.730,152.7871
45.740,152.4887
45.750,160.4733
45.760,162.5652
45.770,161.7900
45.780,162.6703
45.790,157.8671
45.800,166.9510
45.810,164.5405
45.820,163.4344
45.830,170.7895
45.840,165.4916
45.850,173.3287
45.860,162.4573
45.870,169.3087
45.880,172.2567
45.890,172.6287
45.900,170.6927
45.910,171.1362
45.920,170.3886
45.930,172.6764
45.940,178.8304
45.950,174.9881
45.960,178.2537
45.970,182.4395
45.980,175.3512
45.990,187.9658
46.000,179.2842
46.010,188.9425
46.020,181.6174
46.030,179.5867
46.040,185.7728
46.050,184.6006
46.060,178.8702
46.070,180.5946
46.080,183.0483
46.090,180.7957
46.100,180.4430
46.110,185.0090
46.120,179.5482
46.130,179.8371
46.140,182.7064
46.150,182.3601
46.160,186.6050
46.170,183.4629
46.180,179.1656
46.190,187.5561
46.200,188.4163
46.210,178.0209
46.220,187.0783
46.230,177.5262
46.240,178.0431
46.250,188.7323
46.260,182.7544
46.270,179.7266
46.280,186.7180
46.290,187.1783
46.300,181.8495
46.310,182.2420
46.320,182.4565
46.330,188.1473
46.340,188.9615
46.350,184.4802
46.360,179.3226
46.370,182.4239
46.380,177.4099
46.390,177.6916
46.400,189.6971
46.410,185.4584
46.420,178.7157
46.430,182.8346
46.440,188.1549
46.450,179.5020
46.460,182.6035
46.470,185.4935
46.480,180.8550
46.490,177.8938
46.500,178.9870
46.510,188.1548
46.520,178.7263
46.530,180.9646
46.540,179.4779
46.550,177.5984
46.560,187.5398
46.570,184.3302
46.580,185.7411
46.590,186.4935
46.600,180.2419
46.610,185.8870
46.620,178.2432
46.630,183.8544
46.640,190.1925
46.650,182.2264
46.660,184.7566
46.670,189.8437
46.680,182.9847
46.690,181.9933
46.700,189.4567
46.710,183.7270
46.720,186.3089
46.730,184.7261
46.740,182.6559
46.750,183.2476
46.760,178.0893
46.770,181.1074
46.780,183.0647
46.790,184.1319
46.800,187.0128
46.810,183.6812
46.820,178.7142
46.830,183.1070
46.840,179.6306
46.850,181.7245
46.860,190.3922
46.870,186.8823
46.880,178.5577
46.890,180.6126
46.900,178.8593
46.910,188.1833
46.920,179.0189
46.930,181.0788
46.940,178.1911
46.950,184.2304
46.960,178.3803
46.970,183.5943
46.980,189.5894
46.990,177.6889
47.000,73.9849
47.010,64.6288
47.020,67.8266
47.030,76.7103
47.040,67.6179
47.050,67.9248
47.060,69.5867
47.070,74.5563
47.080,71.4289
47.090,68.5882
47.100,66.5349
47.110,74.8939
47.120,74.0066
47.130,78.0237
47.140,75.6880
47.150,70.9378
47.160,70.1215
47.170,73.7343
47.180,71.7629
47.190,69.1941
47.200,71.5447
47.210,69.8039
47.220,79.3870
47.230,72.2890
47.240,69.7442
47.250,80.4592
47.260,71.6819
47.270,71.9251
47.280,80.9841
47.290,78.6462
47.300,75.0326
47.310,77.5089
47.320,75.2538
47.330,73.5925
47.340,77.4039
47.350,80.7886
47.360,80.4702
47.370,78.9319
47.380,84.1391
47.390,72.1856
47.400,77.0777
47.410,81.7857
47.420,83.8276
47.430,74.0774
47.440,73.4465
47.450,81.2671
47.460,80.8747
47.470,77.4476
47.480,85.2750
47.490,83.2426
47.500,77.5239
47.510,82.2465
47.520,78.1251
47.530,78.2341
47.540,78.8489
47.550,84.6955
47.560,80.1013
47.570,79.9639
47.580,84.8174
47.590,74.3600
47.600,81.7742
47.610,73.4497
47.620,76.0157
47.630,80.5028
47.640,74.8610
47.650,71.5630
47.660,78.9843
47.670,71.1854
47.680,81.2824
47.690,77.1038
47.700,82.3451
47.710,81.0703
47.720,79.3916
47.730,72.7175
47.740,82.3056
47.750,79.4624
47.760,78.1057
47.770,69.3706
47.780,80.4105
47.790,79.6197
47.800,72.8954
47.810,74.1176
47.820,76.2618
47.830,69.9537
47.840,78.8529
47.850,75.2160
47.860,71.5432
47.870,71.3563
47.880,74.1715
47.890,66.9032
47.900,76.9066
47.910,73.9137
47.920,70.7373
47.930,73.3523
47.940,76.0628
47.950,66.6182
47.960,76.6069
47.970,72.3501
47.980,71.7119
47.990,74.2150
48.000,76.0093
48.010,72.7796
48.020,74.2160
48.030,67.3109
48.040,71.6663
48.050,68.3339
48.060,74.6141
48.070,71.6317
48.080,68.6591
48.090,69.3371
48.100,66.6429
48.110,67.1378
48.120,72.4242
48.130,71.6185
48.140,68.5900
48.150,66.9732
48.160,68.7299
48.170,63.7238
48.180,72.0897
48.190,63.3417
48.200,73.9666
48.210,72.9938
48.220,68.5686
48.230,64.4006
48.240,71.3668
48.250,71.6881
48.260,65.1450
48.270,74.5913
48.280,67.1328
48.290,71.7967
48.300,69.8296
48.310,75.6056
48.320,75.1642
48.330,71.1260
48.340,68.7340
48.350,69.1515
48.360,70.7853
48.370,68.7209
48.380,74.4051
48.390,68.9464
48.400,67.0093
48.410,76.4154
48.420,68.0570
48.430,70.5528
48.440,75.0658
48.450,77.3199
48.460,66.4419
48.470,77.5513
48.480,66.9454
48.490,71.4397
48.500,78.3057
48.510,76.8268
48.520,67.0439
48.530,77.5023
48.540,77.7824
48.550,73.0147
48.560,77.1526
48.570,70.9640
48.580,73.7274
48.590,74.0667
48.600,70.7457
48.610,73.7878
48.620,79.1373
48.630,79.7392
48.640,75.9828
48.650,77.7509
48.660,81.9271
48.670,73.4237
48.680,79.7818
48.690,76.0629
48.700,80.4816
48.710,78.0804
48.720,83.3343
48.730,75.6121
48.740,77.6758
48.750,83.0545
48.760,80.1219
48.770,79.0890
48.780,78.8382
48.790,76.6427
48.800,75.1476
48.810,79.9761
48.820,81.0861
48.830,79.1517
48.840,81.7842
48.850,82.6216
48.860,82.0502
48.870,78.4029
48.880,76.7763
48.890,73.2704
48.900,76.6991
48.910,78.3946
48.920,74.7766
48.930,78.2323
48.940,80.8363
48.950,84.3542
48.960,79.1970
48.970,73.1264
48.980,81.0010
48.990,79.7223
49.000,76.6567
49.010,80.6627
49.020,83.9529
49.030,75.6008
49.040,79.4884
49.050,75.9186
49.060,72.8733
49.070,77.9114
49.080,77.5763
49.090,80.3002
49.100,78.1414
49.110,76.4948
49.120,72.3487
49.130,71.7842
49.140,76.2591
49.150,77.5601
49.160,70.7073
49.170,75.7936
49.180,77.1186
49.190,77.7152
49.200,74.9636
49.210,75.4920
49.220,80.8936
49.230,72.9662
49.240,75.9043
49.250,76.3137
49.260,69.7811
49.270,70.2607
49.280,77.0946
49.290,71.6240
49.300,78.1938
49.310,78.8215
49.320,75.2127
49.330,76.7371
49.340,69.6828
49.350,71.7116
49.360,69.8228
49.370,72.3380
49.380,74.4189
49.390,69.8362
49.400,70.6217
49.410,71.0821
49.420,77.0832
49.430,73.1343
49.440,74.6291
49.450,71.4424
49.460,67.2679
49.470,73.2883
49.480,68.0150
49.490,64.5600
49.500,74.1667
49.510,66.2789
49.520,64.4527
49.530,69.0139
49.540,73.3657
49.550,64.8056
49.560,73.6174
49.570,74.4028
49.580,68.4120
49.590,63.6395
49.600,64.1722
49.610,68.0557
49.620,68.8147
49.630,72.6455
49.640,70.2179
49.650,63.0695
49.660,71.4984
49.670,74.3206
49.680,70.1320
49.690,70.7832
49.700,64.7539
49.710,73.0779
49.720,74.3099
49.730,72.8387
49.740,64.9893
49.750,69.2080
49.760,69.4972
49.770,70.1742
49.780,71.7197
49.790,74.3263
49.800,67.9582
49.810,65.7780
49.820,76.1244
49.830,75.0921
49.840,75.7564
49.850,71.4048
49.860,76.2419
49.870,69.4919
49.880,75.0348
49.890,77.3711
49.900,70.7636
49.910,77.4241
49.920,75.1444
49.930,74.6414
49.940,68.3023
49.950,73.5269
49.960,73.6079
49.970,68.7288
49.980,72.0833
49.990,76.2106
50.000,76.1676
50.010,78.9831
50.020,72.1575
50.030,75.3530
50.040,81.5090
50.050,76.7510
50.060,75.0750
50.070,77.0287
50.080,75.3482
50.090,74.5118
50.100,73.0379
50.110,72.1580
50.120,79.7961
50.130,70.8375
50.140,82.8187
50.150,74.6777
50.160,73.3482
50.170,73.7258
50.180,80.4002
50.190,81.3861
50.200,84.5069
50.210,74.0091
50.220,84.5759
50.230,83.5225
50.240,76.5615
50.250,73.0904
50.260,83.4006
50.270,79.4485
50.280,76.0461
50.290,84.4000
50.300,76.2734
50.310,74.5123
50.320,79.2668
50.330,82.2373
50.340,82.6702
50.350,84.6686
50.360,80.4561
50.370,81.2562
50.380,80.0667
50.390,84.4287
50.400,82.5247
50.410,73.1041
50.420,80.3928
50.430,75.1936
50.440,83.1354
50.450,78.2619
50.460,83.9091
50.470,76.8622
50.480,82.4469
50.490,83.3418
50.500,81.8882
50.510,84.5704
50.520,75.6984
50.530,78.4614
50.540,76.9216
50.550,74.1711
50.560,72.7041
50.570,76.2641
50.580,76.2779
50.590,71.3161
50.600,80.5344
50.610,72.9261
50.620,79.5193
50.630,71.1000
50.640,79.7973
50.650,72.9529
50.660,69.8381
50.670,76.9258
50.680,70.6890
50.690,70.7946
50.700,75.4610
50.710,73.4418
50.720,69.5816
50.730,79.7101
50.740,70.0021
50.750,73.1788
50.760,69.9777
50.770,66.7851
50.780,77.2219
50.790,72.0669
50.800,76.7129
50.810,76.5580
50.820,75.3425
50.830,75.6161
50.840,67.2566
50.850,68.4188
50.860,66.8946
50.870,65.6950
50.880,71.3366
50.890,67.4580
50.900,76.1892
50.910,71.3825
50.920,74.1760
50.930,69.0538
50.940,73.1559
50.950,69.2034
50.960,65.9481
50.970,69.1565
50.980,69.4597
50.990,74.9205
51.000,73.2718
51.010,71.1195
51.020,75.1313
51.030,64.1286
51.040,73.9223
51.050,64.1877
51.060,63.1349
51.070,74.6187
51.080,63.9480
51.090,64.5941
51.100,67.6358
51.110,69.5827
51.120,74.6639
51.130,68.7595
51.140,63.9491
51.150,75.8126
51.160,71.9562
51.170,73.2174
51.180,66.6690
51.190,71.5250
51.200,71.4891
51.210,74.6423
51.220,69.5490
51.230,74.1506
51.240,74.4276
51.250,66.5616
51.260,67.1792
51.270,70.5943
51.280,73.4350
51.290,74.9700
51.300,75.7717
51.310,72.8311
51.320,70.1453
51.330,75.2996
51.340,68.3679
51.350,67.5032
51.360,71.2093
51.370,71.6409
51.380,78.5733
51.390,74.4600
51.400,74.5345
51.410,69.8783
51.420,74.4428
51.430,71.6848
51.440,79.0358
51.450,80.1444
51.460,69.8129
51.470,79.7048
51.480,79.3824
51.490,79.7019
51.500,76.1436
51.510,78.7835
51.520,70.5248
51.530,81.5258
51.540,73.9720
51.550,72.4571
51.560,81.5619
51.570,72.5746
51.580,78.5669
51.590,84.2301
51.600,75.9529
51.610,75.2247
51.620,83.7025
51.630,74.3975
51.640,73.0026
51.650,72.8261
51.660,82.9508
51.670,73.7768
51.680,77.6798
51.690,81.5463
51.700,77.7240
51.710,85.3173
51.720,85.0825
51.730,83.0226
51.740,75.2424
51.750,82.5250
51.760,74.1112
51.770,80.1217
51.780,85.6707
51.790,78.9367
51.800,80.7933
51.810,76.5852
51.820,82.4359
51.830,84.8293
51.840,74.6792
51.850,78.3409
51.860,85.8611
51.870,74.4454
51.880,80.5406
51.890,84.2178
51.900,85.3009
51.910,75.3384
51.920,83.7925
51.930,79.1024
51.940,81.7986
51.950,81.9797
51.960,79.3728
51.970,76.0482
51.980,76.4369
51.990,78.6299
52.000,76.7866
52.010,78.0845
52.020,74.5161
52.030,82.5340
52.040,70.5693
52.050,76.1366
52.060,76.6658
52.070,73.9319
52.080,77.3715
52.090,77.1657
52.100,71.8272
52.110,81.6485
52.120,71.8624
52.130,79.9174
52.140,78.5795
52.150,70.5402
52.160,72.9007
52.170,75.7274
52.180,72.7075
52.190,75.8511
52.200,70.8917
52.210,68.6748
52.220,70.7065
52.230,71.5335
52.240,78.6437
52.250,72.3025
52.260,72.3090
52.270,75.2605
52.280,76.2112
52.290,69.9206
52.300,75.7772
52.310,74.7146
52.320,66.8886
52.330,74.9604
52.340,75.3006
52.350,64.4347
52.360,75.8435
52.370,72.0717
52.380,72.1006
52.390,75.0826
52.400,66.6421
52.410,75.5532
52.420,76.0414
52.430,66.7888
52.440,66.3550
52.450,75.6895
52.460,68.3827
52.470,66.1022
52.480,71.8186
52.490,67.9459
52.500,64.5393
52.510,65.1985
52.520,65.9328
52.530,63.1638
52.540,71.7424
52.550,71.9980
52.560,75.1058
52.570,64.9494
52.580,71.8548
52.590,70.1387
52.600,69.0836
52.610,66.7432
52.620,76.1748
52.630,65.7364
52.640,69.0773
52.650,74.1513
52.660,70.3427
52.670,77.2214
52.680,66.1139
52.690,76.5281
52.700,67.5460
52.710,73.3986
52.720,69.1415
52.730,66.9840
52.740,72.0966
52.750,70.5567
52.760,77.2958
52.770,72.3473
52.780,69.6119
52.790,77.4488
52.800,69.3443
52.810,69.8568
52.820,76.6425
52.830,69.4040
52.840,78.6457
52.850,77.9408
52.860,70.1224
52.870,77.7233
52.880,74.2162
52.890,71.4407
52.900,80.3479
52.910,77.6003
52.920,81.9816
52.930,72.7916
52.940,70.8301
52.950,75.2506
52.960,79.0980
52.970,83.4850
52.980,77.3816
52.990,79.4798
53.000,82.5887
53.010,83.2067
53.020,75.7370
53.030,82.2214
53.040,77.8459
53.050,80.4543
53.060,72.5624
53.070,78.3831
53.080,79.0208
53.090,77.5948
53.100,81.5025
53.110,78.5200
53.120,73.6013
53.130,77.7277
53.140,78.4023
53.150,80.1170
53.160,75.9176
53.170,79.3979
53.180,78.7890
53.190,79.6814
53.200,84.7841
53.210,73.6369
53.220,78.9707
53.230,85.1234
53.240,76.0256
53.250,86.1886
53.260,78.4416
53.270,78.8588
53.280,81.2845
53.290,81.9770
53.300,83.4647
53.310,82.2222
53.320,76.0923
53.330,82.7085
53.340,83.0846
53.350,83.5928
53.360,78.8676
53.370,79.3333
53.380,73.0795
53.390,83.2161
53.400,80.1148
53.410,81.8252
53.420,77.1461
53.430,76.0533
53.440,81.0622
53.450,80.2347
53.460,80.5610
53.470,81.5932
53.480,73.2100
53.490,82.6900
53.500,72.4189
53.510,72.7615
53.520,73.8045
53.530,81.1205
53.540,80.2780
53.550,79.5869
53.560,68.8032
53.570,74.4236
53.580,77.5013
53.590,77.5085
53.600,75.1413
53.610,68.7240
53.620,68.9056
53.630,73.4481
53.640,71.0334
53.650,67.5159
53.660,74.3097
53.670,74.3075
53.680,75.2677
53.690,67.2734
53.700,72.3467
53.710,75.9170
53.720,76.3678
53.730,71.0498
53.740,65.2284
53.750,75.9718
53.760,76.6250
53.770,74.6662
53.780,73.5538
53.790,71.4412
53.800,74.1202
53.810,69.6461
53.820,71.7132
53.830,75.6783
53.840,73.5482
53.850,74.2092
53.860,67.5655
53.870,76.0026
53.880,72.1360
53.890,69.8506
53.900,74.7175
53.910,67.4751
53.920,66.0357
53.930,64.0232
53.940,72.4909
53.950,72.0290
53.960,76.0649
53.970,71.8164
53.980,74.4152
53.990,70.1635
54.000,64.6775
54.010,70.5028
54.020,65.7858
54.030,69.0613
54.040,75.8003
54.050,76.6232
54.060,72.6705
54.070,76.8423
54.080,69.6719
54.090,67.7141
54.100,66.8726
54.110,71.8516
54.120,69.4464
54.130,68.6763
54.140,75.6121
54.150,71.2898
54.160,71.0784
54.170,75.3264
54.180,67.1681
54.190,72.7334
54.200,75.5216
54.210,79.4504
54.220,77.6989
54.230,78.3228
54.240,73.6582
54.250,79.5311
54.260,79.1767
54.270,78.7108
54.280,78.6038
54.290,77.1776
54.300,76.9313
54.310,80.8218
54.320,81.6071
54.330,81.7753
54.340,78.4818
54.350,76.2912
54.360,77.5394
54.370,77.0180
54.380,72.2509
54.390,82.1684
54.400,75.0793
54.410,83.5571
54.420,80.1629
54.430,78.6042
54.440,72.3915
54.450,76.6648
54.460,75.1068
54.470,81.7245
54.480,75.5159
54.490,80.9838
54.500,73.3396
54.510,74.1777
54.520,78.5394
54.530,78.7013
54.540,73.4855
54.550,81.3616
54.560,85.2534
54.570,74.2292
54.580,85.6177
54.590,85.9595
54.600,76.0625
54.610,86.4667
54.620,81.5796
54.630,76.8114
54.640,85.8598
54.650,84.2229
54.660,74.9036
54.670,86.0422
54.680,83.6202
54.690,84.3855
54.700,75.3298
54.710,76.6179
54.720,78.0038
54.730,82.1975
54.740,76.6519
54.750,86.0266
54.760,78.3209
54.770,84.2268
54.780,77.0457
54.790,77.1794
54.800,80.2781
54.810,74.9621
54.820,83.3490
54.830,79.4687
54.840,81.3777
54.850,77.7452
54.860,80.7305
54.870,74.2956
54.880,74.6123
54.890,77.9963
54.900,81.0385
54.910,74.5983
54.920,81.4543
54.930,83.1265
54.940,73.2681
54.950,75.7749
54.960,80.9381
54.970,73.1822
54.980,75.9908
54.990,77.8446
55.000,69.0082
55.010,80.3298
55.020,76.5463
55.030,79.6641
55.040,77.7213
55.050,78.1096
55.060,73.6907
55.070,69.1699
55.080,68.7143
55.090,75.1999
55.100,77.4234
55.110,71.0114
55.120,73.0425
55.130,76.3145
55.140,74.9560
55.150,74.3754
55.160,74.7187
55.170,75.0702
55.180,72.0137
55.190,69.7233
55.200,70.0145
55.210,74.5613
55.220,66.5842
55.230,67.6323
55.240,71.0037
55.250,69.9396
55.260,74.4046
55.270,70.8016
55.280,68.8418
55.290,71.6276
55.300,75.8751
55.310,72.2852
55.320,71.8389
55.330,66.1097
55.340,75.4370
55.350,69.0015
55.360,75.5757
55.370,65.9397
55.380,72.9844
55.390,65.7094
55.400,69.1285
55.410,73.7314
55.420,76.5743
55.430,66.9859
55.440,69.2409
55.450,69.1147
55.460,70.3340
55.470,70.3345
55.480,75.6018
55.490,65.8420
55.500,67.3224
55.510,76.0647
55.520,73.2470
55.530,77.9193
55.540,74.9052
55.550,72.1492
55.560,75.3889
55.570,72.6867
55.580,67.9483
55.590,76.3359
55.600,75.9530
55.610,72.1372
55.620,73.3648
55.630,73.5717
55.640,79.2422
55.650,70.4571
55.660,77.2150
55.670,76.3744
55.680,73.5867
55.690,72.2224
55.700,71.2887
55.710,77.0129
55.720,79.3107
55.730,73.9000
55.740,80.4200
55.750,72.6270
55.760,73.6280
55.770,73.1476
55.780,78.8690
55.790,78.5248
55.800,82.1592
55.810,76.2755
55.820,74.0838
55.830,75.1325
55.840,72.7188
55.850,71.8668
55.860,78.9530
55.870,84.7245
55.880,76.7912
55.890,77.2608
55.900,75.1399
55.910,77.9414
55.920,73.9400
55.930,77.0842
55.940,84.8982
55.950,77.0562
55.960,84.2379
55.970,85.7280
55.980,81.0458
55.990,79.4177
56.000,83.3121
56.010,81.3800
56.020,75.3481
56.030,75.7105
56.040,85.8559
56.050,83.4473
56.060,75.4016
56.070,80.2246
56.080,78.8546
56.090,84.4786
56.100,75.7090
56.110,77.2322
56.120,74.9996
56.130,85.9098
56.140,86.2731
56.150,78.7391
56.160,84.2530
56.170,76.5916
56.180,83.7903
56.190,85.9074
56.200,76.8739
56.210,75.1389
56.220,74.3714
56.230,74.7545
56.240,75.0442
56.250,80.5073
56.260,73.0123
56.270,72.8775
56.280,84.8288
56.290,81.1095
56.300,74.5493
56.310,73.6756
56.320,74.5839
56.330,79.4326
56.340,72.5339
56.350,82.9308
56.360,81.4544
56.370,72.0571
56.380,76.3004
56.390,70.4218
56.400,79.0415
56.410,81.9633
56.420,80.3835
56.430,72.8644
56.440,79.9533
56.450,73.6319
56.460,79.2863
56.470,79.9102
56.480,73.9941
56.490,78.4564
56.500,68.4539
56.510,69.7536
56.520,69.3594
56.530,67.4183
56.540,73.0406
56.550,76.3018
56.560,69.2267
56.570,70.4089
56.580,67.7191
56.590,69.3419
56.600,73.1193
56.610,66.9186
56.620,74.2350
56.630,76.3096
56.640,73.3377
56.650,75.2184
56.660,69.1270
56.670,68.8906
56.680,71.3219
56.690,69.1875
56.700,66.1614
56.710,71.2886
56.720,76.5128
56.730,64.3902
56.740,65.6960
56.750,71.8928
56.760,65.5028
56.770,66.2717
56.780,75.6525
56.790,70.2123
56.800,73.3289
56.810,67.0275
56.820,64.8792
56.830,75.3304
56.840,69.3880
56.850,73.5192
56.860,74.1666
56.870,71.3269
56.880,72.2556
56.890,66.6574
56.900,68.5760
56.910,66.5324
56.920,66.5979
56.930,67.4615
56.940,77.0334
56.950,69.5799
56.960,77.8091
56.970,69.1723
56.980,71.8524
56.990,78.6125
57.000,68.0287
57.010,77.6436
57.020,71.9631
57.030,68.1192
57.040,73.4460
57.050,69.1384
57.060,70.4831
57.070,71.3361
57.080,70.6585
57.090,79.6454
57.100,70.7946
57.110,78.5118
57.120,75.5677
57.130,69.2657
57.140,73.0270
57.150,78.4727
57.160,78.0004
57.170,79.6468
57.180,73.1185
57.190,78.6727
57.200,74.3348
57.210,77.8679
57.220,72.8517
57.230,75.3813
57.240,79.6991
57.250,78.2512
57.260,80.9542
57.270,72.2748
57.280,72.1691
57.290,76.2083
57.300,83.2314
57.310,76.8396
57.320,82.9030
57.330,81.8985
57.340,79.4699
57.350,85.1511
57.360,84.1464
57.370,79.9449
57.380,75.2462
57.390,81.4505
57.400,80.3779
57.410,82.6728
57.420,83.1171
57.430,76.9144
57.440,78.6421
57.450,79.5336
57.460,78.7663
57.470,77.4506
57.480,87.0342
57.490,79.7019
57.500,74.8443
57.510,83.0662
57.520,83.8439
57.530,80.6074
57.540,83.1751
57.550,82.1037
57.560,84.9114
57.570,85.9250
57.580,82.9452
57.590,76.6045
57.600,86.0809
57.610,82.4391
57.620,84.4999
57.630,81.6889
57.640,85.0941
57.650,79.9492
57.660,80.7000
57.670,73.9448
57.680,83.9961
57.690,82.7168
57.700,80.2673
57.710,81.0200
57.720,75.7796
57.730,79.0886
57.740,72.6270
57.750,75.7912
57.760,80.3228
57.770,77.9995
57.780,81.1402
57.790,75.9921
57.800,79.6922
57.810,73.8204
57.820,73.8958
57.830,73.1018
57.840,79.2784
57.850,80.3592
57.860,78.1175
57.870,74.2811
57.880,78.8205
57.890,81.0480
57.900,74.9126
57.910,68.6337
57.920,71.2608
57.930,77.5080
57.940,78.1131
57.950,72.9809
57.960,67.3981
57.970,70.8649
57.980,68.8468
57.990,69.8344
58.000,67.2506
58.010,76.3007
58.020,67.5688
58.030,74.7505
58.040,73.4063
58.050,76.1392
58.060,70.7208
58.070,65.8745
58.080,77.3763
58.090,65.2818
58.100,73.0291
58.110,70.3062
58.120,68.2527
58.130,74.6654
58.140,65.1104
58.150,67.6542
58.160,70.0804
58.170,75.9291
58.180,72.6570
58.190,73.6563
58.200,70.6634
58.210,71.3248
58.220,76.5517
58.230,67.0185
58.240,76.8339
58.250,73.8103
58.260,65.5275
58.270,69.8601
58.280,70.6444
58.290,68.2769
58.300,74.6303
58.310,65.1717
58.320,71.0025
58.330,69.3840
58.340,70.0568
58.350,71.3142
58.360,73.8724
58.370,74.9748
58.380,65.8616
58.390,67.1979
58.400,77.8869
58.410,70.9805
58.420,74.1558
58.430,76.5601
58.440,79.0189
58.450,73.5301
58.460,68.9863
58.470,76.6403
58.480,70.7834
58.490,71.8489
58.500,74.1835
58.510,79.6990
58.520,74.9063
58.530,72.1083
58.540,77.9931
58.550,74.4828
58.560,73.3122
58.570,71.3635
58.580,78.0534
58.590,78.3854
58.600,80.8855
58.610,76.9874
58.620,76.0431
58.630,76.3361
58.640,73.9298
58.650,75.9755
58.660,75.1152
58.670,81.2240
58.680,82.4000
58.690,73.1466
58.700,73.6295
58.710,81.3921
58.720,82.3979
58.730,83.0885
58.740,78.5470
58.750,75.6399
58.760,82.7579
58.770,73.6194
58.780,79.4156
58.790,79.7538
58.800,83.6175
58.810,81.8279
58.820,75.5078
58.830,86.1335
58.840,78.8100
58.850,81.6936
58.860,77.2076
58.870,85.0538
58.880,80.7193
58.890,79.1294
58.900,81.9446
58.910,87.1188
58.920,84.4001
58.930,81.5469
58.940,77.3604
58.950,81.7395
58.960,82.4529
58.970,84.3753
58.980,82.8894
58.990,81.2950
59.000,78.6124
59.010,85.0861
59.020,77.0328
59.030,79.7903
59.040,82.2715
59.050,85.1723
59.060,81.8208
59.070,83.8428
59.080,83.5253
59.090,79.8687
59.100,76.2789
59.110,80.3057
59.120,77.1312
59.130,73.2451
59.140,78.6480
59.150,76.6954
59.160,75.4366
59.170,74.3745
59.180,76.8977
59.190,78.1836
59.200,79.5572
59.210,81.7589
59.220,83.7892
59.230,82.7137
59.240,83.0205
59.250,80.4378
59.260,73.8321
59.270,78.3592
59.280,78.0567
59.290,75.3756
59.300,75.1035
59.310,78.5604
59.320,79.5432
59.330,78.0709
59.340,75.7515
59.350,77.3378
59.360,74.1312
59.370,68.6329
59.380,70.7137
59.390,73.6401
59.400,73.4237
59.410,67.8423
59.420,74.9688
59.430,74.2981
59.440,67.1805
59.450,78.3993
59.460,73.9881
59.470,68.5696
59.480,76.6608
59.490,71.0325
59.500,71.9127
59.510,76.9832
59.520,73.9431
59.530,68.7729
59.540,65.9010
59.550,73.5622
59.560,65.3511
59.570,77.4231
59.580,75.9922
59.590,65.2525
59.600,75.8859
59.610,69.6463
59.620,68.7670
59.630,65.5045
59.640,75.0693
59.650,70.5005
59.660,68.4782
59.670,65.1611
59.680,71.0255
59.690,69.2790
59.700,75.5902
59.710,75.4034
59.720,68.6153
59.730,70.0992
59.740,77.0035
59.750,77.5503
59.760,75.8891
59.770,76.8046
59.780,65.7979
59.790,78.0869
59.800,65.8251
59.810,75.8459
59.820,74.1183
59.830,69.5711
59.840,75.3296
59.850,71.1475
59.860,69.4032
59.870,77.1033
59.880,78.5523
59.890,69.0338
59.900,68.4179
59.910,77.9803
59.920,69.7205
59.930,79.1262
59.940,75.0859
59.950,73.8917
59.960,80.9662
59.970,74.0295
59.980,77.9600
59.990,81.6194
