t_s,envelope_uV
0.000,63.2595
0.010,66.6355
0.020,66.8587
0.030,74.8470
0.040,68.1185
0.050,75.3445
0.060,66.8156
0.070,64.8147
0.080,67.6914
0.090,74.9215
0.100,76.2204
0.110,73.6383
0.120,77.8083
0.130,71.3892
0.140,73.7806
0.150,69.9627
0.160,78.3233
0.170,67.9257
0.180,66.9463
0.190,71.4988
0.200,75.2040
0.210,72.2069
0.220,69.5927
0.230,77.7126
0.240,67.8213
0.250,81.6474
0.260,69.2151
0.270,70.8802
0.280,74.3788
0.290,77.9994
0.300,71.3987
0.310,79.0930
0.320,74.4993
0.330,76.9097
0.340,70.6204
0.350,72.9737
0.360,72.2249
0.370,68.9285
0.380,74.4423
0.390,75.8998
0.400,81.2692
0.410,73.0286
0.420,68.6369
0.430,78.9901
0.440,77.8098
0.450,71.3158
0.460,73.7355
0.470,70.7699
0.480,80.3187
0.490,71.2954
0.500,72.5436
0.510,80.5440
0.520,77.9882
0.530,70.3483
0.540,74.2134
0.550,71.5218
0.560,70.2385
0.570,74.2698
0.580,67.4192
0.590,71.5359
0.600,65.7684
0.610,66.2987
0.620,68.1021
0.630,65.4144
0.640,65.6020
0.650,70.0942
0.660,76.9796
0.670,66.2895
0.680,77.1749
0.690,64.4435
0.700,67.4590
0.710,73.9402
0.720,75.9076
0.730,73.2657
0.740,71.9531
0.750,71.6980
0.760,68.9498
0.770,73.5691
0.780,62.5065
0.790,72.6570
0.800,70.4962
0.810,70.6699
0.820,68.3257
0.830,72.6307
0.840,67.9695
0.850,60.5138
0.860,72.8020
0.870,63.2435
0.880,67.4764
0.890,66.3000
0.900,60.2052
0.910,69.6499
0.920,67.3689
0.930,66.7925
0.940,65.4369
0.950,70.7635
0.960,65.2042
0.970,67.7163
0.980,69.1957
0.990,59.3290
1.000,67.5543
1.010,65.9184
1.020,60.0832
1.030,57.6867
1.040,63.4383
1.050,70.4248
1.060,68.7643
1.070,57.5524
1.080,69.3825
1.090,62.1157
1.100,71.2082
1.110,65.6344
1.120,68.3959
1.130,63.4837
1.140,59.2731
1.150,62.5699
1.160,66.2318
1.170,71.3321
1.180,59.0119
1.190,68.9191
1.200,67.2528
1.210,64.7273
1.220,65.6013
1.230,62.6390
1.240,72.4738
1.250,66.7927
1.260,64.8627
1.270,64.9950
1.280,62.8324
1.290,60.8467
1.300,68.2647
1.310,66.9456
1.320,64.6644
1.330,62.4281
1.340,70.7216
1.350,65.7646
1.360,71.9562
1.370,67.9867
1.380,64.6309
1.390,73.2312
1.400,73.9026
1.410,64.7878
1.420,70.5520
1.430,66.4116
1.440,69.6858
1.450,64.4060
1.460,67.4451
1.470,69.2399
1.480,68.1909
1.490,70.0227
1.500,72.1456
1.510,74.9621
1.520,68.0445
1.530,67.9418
1.540,76.0239
1.550,68.0759
1.560,72.0740
1.570,77.6057
1.580,71.1724
1.590,68.2553
1.600,72.9676
1.610,74.4330
1.620,73.5315
1.630,74.6331
1.640,78.0713
1.650,72.0768
1.660,72.1542
1.670,73.6787
1.680,69.3462
1.690,76.9239
1.700,73.6071
1.710,80.9470
1.720,73.2356
1.730,78.9010
1.740,74.6967
1.750,78.1619
1.760,71.7334
1.770,81.7468
1.780,69.2696
1.790,81.8857
1.800,72.7024
1.810,82.3013
1.820,76.4883
1.830,79.6470
1.840,75.3871
1.850,70.2590
1.860,79.5174
1.870,78.6025
1.880,69.9888
1.890,75.5709
1.900,73.5946
1.910,73.1062
1.920,70.6041
1.930,72.8996
1.940,75.6799
1.950,80.0804
1.960,71.4369
1.970,72.5430
1.980,70.6482
1.990,79.8359
2.000,80.3050
2.010,78.8622
2.020,66.2412
2.030,75.4484
2.040,78.6966
2.050,78.8678
2.060,77.5806
2.070,65.1980
2.080,76.2399
2.090,76.7486
2.100,71.9712
2.110,65.7295
2.120,68.1588
2.130,76.7130
2.140,69.6788
2.150,75.6785
2.160,68.7778
2.170,70.9770
2.180,73.6336
2.190,65.4723
2.200,63.0865
2.210,75.4420
2.220,64.4630
2.230,70.7504
2.240,74.2623
2.250,71.7241
2.260,63.4580
2.270,61.4382
2.280,64.8641
2.290,60.4221
2.300,67.3184
2.310,64.3556
2.320,72.6770
2.330,60.5145
2.340,64.2082
2.350,61.5685
2.360,64.8461
2.370,60.7640
2.380,61.2730
2.390,66.3665
2.400,71.2953
2.410,70.9677
2.420,58.5251
2.430,63.1160
2.440,64.4044
2.450,59.9498
2.460,71.4809
2.470,70.2296
2.480,68.6089
2.490,68.0763
2.500,67.8090
2.510,63.7024
2.520,67.0533
2.530,69.7965
2.540,70.3569
2.550,70.9373
2.560,58.2276
2.570,63.6844
2.580,67.6937
2.590,64.0749
2.600,68.8744
2.610,66.6739
2.620,71.7980
2.630,70.6774
2.640,60.7340
2.650,59.4839
2.660,67.7632
2.670,65.3992
2.680,69.3440
2.690,64.2544
2.700,72.5643
2.710,68.5227
2.720,62.5236
2.730,70.2016
2.740,66.4723
2.750,63.5791
2.760,66.3190
2.770,70.5286
2.780,73.4785
2.790,67.8851
2.800,74.7087
2.810,75.4767
2.820,75.4217
2.830,70.4763
2.840,74.9088
2.850,65.7209
2.860,74.0450
2.870,65.0986
2.880,65.7207
2.890,74.8019
2.900,65.0603
2.910,68.5832
2.920,70.8330
2.930,71.2101
2.940,79.0574
2.950,78.1879
2.960,73.5634
2.970,66.1813
2.980,66.3989
2.990,75.6365
3.000,77.1528
3.010,78.0820
3.020,79.6529
3.030,76.5463
3.040,78.3075
3.050,77.6251
3.060,76.5706
3.070,75.5818
3.080,76.6218
3.090,81.0059
3.100,68.6240
3.110,74.9568
3.120,73.6467
3.130,79.9707
3.140,80.7174
3.150,81.9710
3.160,75.1591
3.170,76.9189
3.180,80.9568
3.190,76.9039
3.200,69.0605
3.210,72.4955
3.220,77.6953
3.230,75.9463
3.240,75.2693
3.250,81.7612
3.260,80.1713
3.270,73.5945
3.280,77.8267
3.290,74.6856
3.300,72.0461
3.310,74.6676
3.320,74.1207
3.330,78.8248
3.340,72.4053
3.350,81.5787
3.360,76.2711
3.370,75.8150
3.380,69.8693
3.390,78.9075
3.400,68.7410
3.410,79.8032
3.420,77.3442
3.430,76.7432
3.440,72.9518
3.450,72.4452
3.460,67.6658
3.470,68.7016
3.480,72.9785
3.490,73.9412
3.500,76.2116
3.510,76.7594
3.520,70.4382
3.530,74.3143
3.540,65.9032
3.550,71.2346
3.560,71.9035
3.570,71.1270
3.580,70.6494
3.590,73.5498
3.600,67.5832
3.610,68.9198
3.620,64.0966
3.630,73.6100
3.640,73.9294
3.650,71.5592
3.660,62.7683
3.670,74.5528
3.680,65.7674
3.690,72.5272
3.700,64.8221
3.710,73.0665
3.720,61.6923
3.730,61.2704
3.740,65.1282
3.750,67.2720
3.760,71.9608
3.770,64.7968
3.780,64.0274
3.790,63.0194
3.800,70.3186
3.810,60.4598
3.820,66.7192
3.830,63.2020
3.840,70.3896
3.850,60.8211
3.860,65.2048
3.870,58.3336
3.880,66.1128
3.890,61.4234
3.900,67.6381
3.910,69.2678
3.920,71.3907
3.930,58.1297
3.940,70.3607
3.950,66.8560
3.960,64.8401
3.970,63.7553
3.980,71.7107
3.990,60.3119
4.000,62.3224
4.010,62.8277
4.020,60.9656
4.030,60.6913
4.040,59.1158
4.050,68.1163
4.060,68.1867
4.070,60.0244
4.080,71.9155
4.090,64.5395
4.100,65.6966
4.110,67.7403
4.120,60.9860
4.130,72.8858
4.140,61.7659
4.150,63.0784
4.160,61.3880
4.170,66.1606
4.180,61.6201
4.190,63.3465
4.200,68.8388
4.210,69.5188
4.220,68.5562
4.230,69.1157
4.240,66.3151
4.250,66.2925
4.260,65.8182
4.270,69.3909
4.280,66.9879
4.290,70.8694
4.300,75.4876
4.310,70.6061
4.320,73.1059
4.330,69.0578
4.340,66.7694
4.350,75.2295
4.360,71.6668
4.370,74.1394
4.380,79.4173
4.390,75.1267
4.400,67.5148
4.410,76.9866
4.420,80.1452
4.430,74.2099
4.440,78.9482
4.450,68.8967
4.460,70.3936
4.470,76.8974
4.480,80.7962
4.490,76.7321
4.500,74.2005
4.510,69.2885
4.520,69.0621
4.530,82.3125
4.540,71.7060
4.550,74.5595
4.560,78.9882
4.570,78.0177
4.580,75.3009
4.590,72.1711
4.600,74.9707
4.610,76.3934
4.620,71.5822
4.630,75.2156
4.640,71.5355
4.650,69.8939
4.660,75.1695
4.670,77.1642
4.680,74.0727
4.690,69.6836
4.700,78.1334
4.710,73.3359
4.720,82.5503
4.730,73.5150
4.740,80.3193
4.750,77.4464
4.760,80.6842
4.770,72.3383
4.780,80.1292
4.790,75.7629
4.800,77.4840
4.810,81.5749
4.820,78.3754
4.830,68.8983
4.840,71.7893
4.850,73.1666
4.860,68.6250
4.870,75.2165
4.880,72.3045
4.890,76.2418
4.900,75.4773
4.910,73.4291
4.920,66.1567
4.930,71.2238
4.940,78.7583
4.950,78.8620
4.960,71.7789
4.970,77.5386
4.980,73.6531
4.990,68.5865
5.000,77.7628
5.010,76.6164
5.020,73.8182
5.030,66.2652
5.040,72.7522
5.050,65.3243
5.060,66.9023
5.070,67.0110
5.080,68.4731
5.090,70.6485
5.100,62.3177
5.110,73.3973
5.120,74.1684
5.130,70.4424
5.140,63.4619
5.150,69.8321
5.160,68.8382
5.170,69.1243
5.180,60.3042
5.190,66.0731
5.200,65.2178
5.210,62.5073
5.220,59.7320
5.230,67.1146
5.240,61.2875
5.250,62.8731
5.260,69.5858
5.270,65.3783
5.280,71.2369
5.290,59.0337
5.300,65.2218
5.310,62.0811
5.320,72.0956
5.330,67.8526
5.340,69.7979
5.350,65.8580
5.360,65.4659
5.370,63.5869
5.380,65.8449
5.390,71.4872
5.400,66.6133
5.410,62.2728
5.420,62.0773
5.430,69.8927
5.440,70.7386
5.450,69.4579
5.460,59.9442
5.470,60.0540
5.480,66.7995
5.490,65.8579
5.500,73.4343
5.510,60.3915
5.520,68.7681
5.530,73.6687
5.540,62.4321
5.550,66.8478
5.560,70.8526
5.570,69.6710
5.580,68.1067
5.590,73.2779
5.600,62.9637
5.610,73.0771
5.620,62.1204
5.630,69.3235
5.640,65.5530
5.650,65.7429
5.660,74.7994
5.670,63.1740
5.680,68.9103
5.690,64.6581
5.700,65.3240
5.710,72.5367
5.720,64.8322
5.730,68.6290
5.740,68.3740
5.750,76.7932
5.760,73.1546
5.770,75.6913
5.780,65.9722
5.790,79.7592
5.800,72.9673
5.810,70.9560
5.820,67.0123
5.830,67.3482
5.840,79.0043
5.850,79.6837
5.860,74.4448
5.870,81.3655
5.880,73.2665
5.890,81.2315
5.900,82.0149
5.910,74.1602
5.920,79.9072
5.930,75.8483
5.940,73.3282
5.950,79.6064
5.960,71.2778
5.970,70.4122
5.980,72.5171
5.990,70.2055
6.000,69.5866
6.010,80.2191
6.020,73.6355
6.030,73.5621
6.040,70.9437
6.050,80.9404
6.060,76.4871
6.070,77.6361
6.080,83.0469
6.090,77.9409
6.100,75.7178
6.110,77.2062
6.120,76.1363
6.130,79.7872
6.140,76.3378
6.150,69.9480
6.160,72.3960
6.170,70.0812
6.180,75.9912
6.190,75.6772
6.200,73.3075
6.210,73.1579
6.220,75.6711
6.230,68.8325
6.240,69.9608
6.250,76.1263
6.260,77.0664
6.270,79.1287
6.280,77.8794
6.290,72.1960
6.300,72.9519
6.310,78.8963
6.320,78.2826
6.330,69.2654
6.340,75.8278
6.350,72.3624
6.360,66.6128
6.370,77.5786
6.380,66.8963
6.390,77.3206
6.400,78.4050
6.410,77.3091
6.420,69.3400
6.430,74.4288
6.440,66.3833
6.450,73.5635
6.460,72.0384
6.470,69.2778
6.480,75.4341
6.490,73.5682
6.500,65.3625
6.510,68.4567
6.520,67.7317
6.530,75.1803
6.540,75.5667
6.550,74.6109
6.560,63.6507
6.570,73.9072
6.580,71.6620
6.590,71.8607
6.600,62.8146
6.610,66.9672
6.620,62.2497
6.630,67.5791
6.640,66.8700
6.650,69.2625
6.660,68.3948
6.670,67.5020
6.680,60.0411
6.690,62.0057
6.700,61.7731
6.710,60.5539
6.720,63.3875
6.730,67.3597
6.740,72.3980
6.750,71.3477
6.760,65.7243
6.770,70.7629
6.780,68.1976
6.790,65.2097
6.800,69.5103
6.810,71.9724
6.820,67.1238
6.830,63.3635
6.840,66.1819
6.850,61.1215
6.860,69.7421
6.870,68.8485
6.880,68.7822
6.890,60.6550
6.900,65.3339
6.910,67.0287
6.920,70.3309
6.930,68.2202
6.940,61.9445
6.950,70.6469
6.960,65.6810
6.970,69.2516
6.980,70.8812
6.990,64.9138
7.000,68.3068
7.010,71.3322
7.020,70.8093
7.030,68.8259
7.040,63.8408
7.050,65.4776
7.060,70.6929
7.070,71.8701
7.080,71.1584
7.090,66.6710
7.100,76.8557
7.110,68.5162
7.120,72.8996
7.130,71.3796
7.140,66.8236
7.150,75.6536
7.160,71.1869
7.170,65.2978
7.180,65.3984
7.190,65.6531
7.200,77.9551
7.210,74.5256
7.220,76.4494
7.230,70.8287
7.240,71.1109
7.250,76.2793
7.260,75.3178
7.270,73.5668
7.280,72.8185
7.290,71.7681
7.300,68.3828
7.310,68.6568
7.320,75.9271
7.330,82.3438
7.340,70.7811
7.350,76.5533
7.360,69.1848
7.370,75.6242
7.380,71.3984
7.390,69.8160
7.400,72.4086
7.410,73.5143
7.420,78.4078
7.430,72.8507
7.440,72.9868
7.450,73.3646
7.460,74.0885
7.470,80.1757
7.480,81.4457
7.490,81.4421
7.500,82.0282
7.510,74.5507
7.520,73.0820
7.530,82.3091
7.540,77.0335
7.550,76.7359
7.560,75.1201
7.570,79.1029
7.580,70.2982
7.590,72.8165
7.600,74.6072
7.610,80.6200
7.620,71.3652
7.630,73.4403
7.640,74.0962
7.650,72.3973
7.660,69.7673
7.670,76.6885
7.680,82.1170
7.690,80.4754
7.700,73.0915
7.710,70.1946
7.720,77.9664
7.730,71.0340
7.740,78.8188
7.750,76.8496
7.760,75.6807
7.770,69.6720
7.780,74.5089
7.790,75.8143
7.800,78.1681
7.810,78.6158
7.820,67.0188
7.830,78.8072
7.840,68.2250
7.850,66.9412
7.860,66.4066
7.870,75.2698
7.880,69.6496
7.890,71.0102
7.900,77.2835
7.910,77.0336
7.920,75.3462
7.930,70.9726
7.940,72.6229
7.950,64.4195
7.960,73.8276
7.970,72.4202
7.980,69.4912
7.990,71.6734
8.000,61.5287
8.010,74.0171
8.020,67.7813
8.030,65.9788
8.040,69.0403
8.050,72.2587
8.060,61.2861
8.070,62.2424
8.080,61.1791
8.090,67.3459
8.100,61.3645
8.110,70.8061
8.120,71.8099
8.130,68.0989
8.140,70.8849
8.150,64.8439
8.160,66.6651
8.170,63.9069
8.180,63.1121
8.190,72.0726
8.200,65.2063
8.210,68.9245
8.220,64.8136
8.230,66.8041
8.240,66.8657
8.250,64.4960
8.260,63.6114
8.270,72.2799
8.280,65.9988
8.290,65.8469
8.300,63.3568
8.310,67.6734
8.320,69.0903
8.330,66.0621
8.340,67.4098
8.350,63.1097
8.360,61.5762
8.370,61.0646
8.380,63.0185
8.390,61.4051
8.400,63.3821
8.410,67.5177
8.420,72.1170
8.430,69.4911
8.440,65.1117
8.450,65.5427
8.460,67.8018
8.470,66.3887
8.480,73.3326
8.490,72.4477
8.500,66.5415
8.510,75.5630
8.520,73.6881
8.530,70.7106
8.540,69.5825
8.550,71.6026
8.560,67.0029
8.570,66.5847
8.580,76.2227
8.590,75.4867
8.600,66.2923
8.610,70.5603
8.620,71.7529
8.630,76.9336
8.640,77.8047
8.650,68.8711
8.660,77.7170
8.670,73.4759
8.680,81.0473
8.690,80.7133
8.700,68.7753
8.710,81.4000
8.720,76.7741
8.730,70.6650
8.740,68.9817
8.750,73.6778
8.760,70.3818
8.770,72.7598
8.780,77.1427
8.790,78.0060
8.800,76.6049
8.810,81.3244
8.820,81.0075
8.830,72.2688
8.840,78.1952
8.850,73.9229
8.860,81.2818
8.870,71.9190
8.880,82.0036
8.890,70.3339
8.900,73.3232
8.910,84.2798
8.920,81.7799
8.930,77.0720
8.940,74.8258
8.950,75.7619
8.960,71.2935
8.970,76.2638
8.980,80.1703
8.990,78.1235
9.000,75.3345
9.010,72.7726
9.020,83.0323
9.030,83.3988
9.040,72.3408
9.050,73.4768
9.060,72.5941
9.070,79.7688
9.080,80.0333
9.090,81.5425
9.100,81.6101
9.110,74.7772
9.120,71.2014
9.130,71.4594
9.140,79.6666
9.150,72.0352
9.160,72.8208
9.170,72.2619
9.180,71.9336
9.190,67.3705
9.200,67.1138
9.210,68.4486
9.220,79.3875
9.230,77.9539
9.240,71.1987
9.250,74.6083
9.260,73.7048
9.270,76.6204
9.280,78.6920
9.290,69.4136
9.300,65.1840
9.310,67.0010
9.320,77.3497
9.330,76.0807
9.340,70.0662
9.350,72.0068
9.360,74.3941
9.370,71.0536
9.380,76.2496
9.390,70.1794
9.400,70.6851
9.410,63.7698
9.420,74.7186
9.430,72.5601
9.440,65.0832
9.450,74.6764
9.460,65.7912
9.470,70.3609
9.480,67.2616
9.490,62.2265
9.500,65.4999
9.510,62.4456
9.520,61.2387
9.530,70.9686
9.540,68.7490
9.550,68.6177
9.560,69.1801
9.570,72.2919
9.580,69.4210
9.590,71.2144
9.600,66.6151
9.610,70.5661
9.620,71.2310
9.630,68.0052
9.640,59.5620
9.650,66.0790
9.660,66.4040
9.670,62.7898
9.680,71.6675
9.690,67.6790
9.700,71.0383
9.710,59.7660
9.720,62.9129
9.730,60.4595
9.740,71.2245
9.750,71.5014
9.760,60.2974
9.770,61.0291
9.780,69.3463
9.790,64.3535
9.800,67.3025
9.810,63.6887
9.820,69.6401
9.830,63.8324
9.840,67.0191
9.850,73.2581
9.860,63.0821
9.870,70.9091
9.880,65.4251
9.890,67.6416
9.900,75.9517
9.910,70.8819
9.920,72.0698
9.930,74.7801
9.940,64.7665
9.950,75.4916
9.960,73.3428
9.970,67.7602
9.980,68.4096
9.990,75.9561
10.000,76.2003
10.010,70.9142
10.020,66.5734
10.030,79.3080
10.040,75.1945
10.050,79.1225
10.060,76.1997
10.070,74.3431
10.080,68.8017
10.090,72.6285
10.100,75.7139
10.110,70.9653
10.120,72.9163
10.130,78.3684
10.140,80.8133
10.150,70.5363
10.160,81.7562
10.170,78.7995
10.180,76.4919
10.190,73.1919
10.200,78.8218
10.210,76.2972
10.220,73.6128
10.230,79.3623
10.240,77.3046
10.250,80.4363
10.260,74.6077
10.270,75.1006
10.280,81.5701
10.290,78.2352
10.300,83.8059
10.310,80.3833
10.320,80.7613
10.330,78.3133
10.340,76.1761
10.350,77.0510
10.360,73.8312
10.370,74.3033
10.380,73.7758
10.390,80.0038
10.400,82.4086
10.410,80.1854
10.420,76.8304
10.430,82.4225
10.440,76.6463
10.450,83.1401
10.460,82.9265
10.470,79.1161
10.480,70.6316
10.490,72.9669
10.500,72.3352
10.510,81.6971
10.520,69.9402
10.530,76.6760
10.540,79.1535
10.550,70.8668
10.560,78.3369
10.570,81.7525
10.580,79.8855
10.590,73.0654
10.600,71.7420
10.610,71.8929
10.620,68.0936
10.630,71.7654
10.640,76.3290
10.650,77.6686
10.660,80.0677
10.670,69.3261
10.680,77.9097
10.690,76.5346
10.700,66.7434
10.710,70.8787
10.720,69.9204
10.730,66.6870
10.740,78.1415
10.750,74.3812
10.760,71.4326
10.770,67.2581
10.780,77.3457
10.790,66.5785
10.800,72.8696
10.810,72.7079
10.820,74.2294
10.830,74.5685
10.840,70.2685
10.850,68.6537
10.860,63.6062
10.870,65.5427
10.880,67.5661
10.890,66.5891
10.900,68.0647
10.910,67.0387
10.920,61.3240
10.930,63.1149
10.940,60.8187
10.950,66.9654
10.960,61.3492
10.970,68.4480
10.980,73.8050
10.990,64.7127
11.000,62.8059
11.010,66.2795
11.020,69.9141
11.030,68.9080
11.040,65.5217
11.050,61.8751
11.060,66.1106
11.070,61.4005
11.080,72.3871
11.090,60.2958
11.100,59.9817
11.110,65.2556
11.120,67.5904
11.130,62.9851
11.140,66.3051
11.150,68.3333
11.160,71.6327
11.170,72.4286
11.180,71.4367
11.190,73.0944
11.200,65.6507
11.210,62.2932
11.220,67.1891
11.230,69.2718
11.240,74.3800
11.250,70.6595
11.260,63.2182
11.270,64.8284
11.280,66.8570
11.290,70.8896
11.300,67.2951
11.310,75.5342
11.320,74.5999
11.330,65.0227
11.340,68.6257
11.350,76.5781
11.360,73.6888
11.370,67.7392
11.380,77.1577
11.390,68.6192
11.400,68.2528
11.410,65.5885
11.420,73.7788
11.430,66.7800
11.440,67.2136
11.450,67.3068
11.460,67.2894
11.470,71.2683
11.480,69.5645
11.490,68.9255
11.500,69.2068
11.510,70.7740
11.520,71.4812
11.530,81.4320
11.540,79.3915
11.550,71.0334
11.560,76.6626
11.570,77.7227
11.580,74.9442
11.590,69.4004
11.600,82.6569
11.610,83.2811
11.620,77.2176
11.630,79.7393
11.640,83.6295
11.650,82.8911
11.660,72.7906
11.670,70.4528
11.680,73.8166
11.690,81.0406
11.700,72.8427
11.710,75.3170
11.720,80.1302
11.730,82.4534
11.740,82.0697
11.750,80.7217
11.760,75.3182
11.770,74.8858
11.780,82.8109
11.790,75.5713
11.800,82.3244
11.810,71.1937
11.820,80.1714
11.830,80.1450
11.840,81.3606
11.850,81.5407
11.860,83.3777
11.870,75.9810
11.880,83.5853
11.890,79.3053
11.900,72.9666
11.910,82.5267
11.920,83.2942
11.930,79.9327
11.940,73.5628
11.950,78.8514
11.960,83.0919
11.970,80.7133
11.980,78.5698
11.990,74.4384
12.000,77.6437
12.010,74.2554
12.020,77.5832
12.030,79.3307
12.040,78.8035
12.050,70.1149
12.060,79.9025
12.070,68.7378
12.080,80.3004
12.090,77.7785
12.100,72.4001
12.110,74.5319
12.120,77.4693
12.130,69.3912
12.140,76.3522
12.150,74.6114
12.160,74.3126
12.170,75.9081
12.180,75.9168
12.190,70.1451
12.200,75.6104
12.210,72.1054
12.220,72.7894
12.230,71.2264
12.240,65.4454
12.250,64.1195
12.260,66.9407
12.270,63.2189
12.280,70.2794
12.290,72.0108
12.300,75.9010
12.310,69.9185
12.320,64.3546
12.330,72.5215
12.340,64.5102
12.350,70.2210
12.360,64.7868
12.370,66.2958
12.380,67.0710
12.390,63.6760
12.400,70.2297
12.410,61.7522
12.420,64.3846
12.430,65.3805
12.440,62.2759
12.450,61.4873
12.460,60.7309
12.470,61.2896
12.480,65.2354
12.490,62.4121
12.500,73.1052
12.510,70.1199
12.520,65.4985
12.530,69.2515
12.540,73.4244
12.550,71.5064
12.560,61.6685
12.570,67.4856
12.580,65.2377
12.590,68.1660
12.600,62.4869
12.610,62.4348
12.620,61.0152
12.630,72.5501
12.640,72.7149
12.650,74.0238
12.660,64.8073
12.670,65.1690
12.680,71.8810
12.690,67.4162
12.700,64.4309
12.710,75.6178
12.720,74.5354
12.730,72.6715
12.740,66.3320
12.750,74.3130
12.760,65.5994
12.770,65.1941
12.780,77.7176
12.790,75.5779
12.800,75.8983
12.810,70.7550
12.820,65.7257
12.830,73.2522
12.840,79.1280
12.850,67.8853
12.860,76.6823
12.870,77.7710
12.880,70.8883
12.890,76.6519
12.900,79.3277
12.910,72.9374
12.920,79.4415
12.930,75.6633
12.940,76.5359
12.950,73.7583
12.960,81.3839
12.970,71.5911
12.980,76.6547
12.990,72.9817
13.000,81.4866
13.010,76.6395
13.020,79.3976
13.030,73.6944
13.040,82.0267
13.050,78.4788
13.060,81.4255
13.070,79.3863
13.080,84.1300
13.090,79.1300
13.100,75.5581
13.110,83.3026
13.120,80.1685
13.130,82.1415
13.140,77.1452
13.150,79.5461
13.160,73.1663
13.170,84.3463
13.180,78.1282
13.190,72.2787
13.200,83.2096
13.210,72.3864
13.220,75.8912
13.230,74.5033
13.240,72.3470
13.250,72.7388
13.260,76.1692
13.270,73.7352
13.280,71.6456
13.290,82.4161
13.300,76.7063
13.310,78.3792
13.320,81.1063
13.330,71.8571
13.340,81.1331
13.350,71.9044
13.360,77.6815
13.370,79.0945
13.380,72.0491
13.390,82.4473
13.400,83.0643
13.410,81.6558
13.420,78.7760
13.430,81.8211
13.440,72.6002
13.450,70.7254
13.460,73.9952
13.470,70.8669
13.480,69.5125
13.490,79.2723
13.500,75.6884
13.510,69.6565
13.520,80.4089
13.530,74.5412
13.540,77.6325
13.550,73.8056
13.560,70.6212
13.570,69.7360
13.580,73.4118
13.590,72.6470
13.600,67.3738
13.610,68.8844
13.620,68.8836
13.630,70.7558
13.640,72.6005
13.650,73.8411
13.660,70.7335
13.670,67.8538
13.680,66.1793
13.690,67.6138
13.700,72.6671
13.710,71.9012
13.720,66.4912
13.730,75.9855
13.740,65.8064
13.750,66.9823
13.760,65.0611
13.770,66.0388
13.780,66.3189
13.790,69.3514
13.800,72.5125
13.810,70.2294
13.820,69.2351
13.830,61.7513
13.840,67.3367
13.850,69.1355
13.860,62.5481
13.870,70.1510
13.880,64.0094
13.890,69.2870
13.900,64.2160
13.910,71.5837
13.920,65.1717
13.930,61.3015
13.940,67.8388
13.950,62.2493
13.960,71.6870
13.970,64.9689
13.980,74.5139
13.990,70.0011
14.000,62.0348
14.010,67.1911
14.020,68.4807
14.030,66.0786
14.040,68.5758
14.050,69.5881
14.060,73.0001
14.070,63.6869
14.080,74.4319
14.090,72.6806
14.100,73.0143
14.110,70.8435
14.120,62.6189
14.130,75.9170
14.140,73.2793
14.150,65.8950
14.160,64.7905
14.170,73.3346
14.180,65.4517
14.190,66.2443
14.200,66.2987
14.210,71.1187
14.220,74.6479
14.230,66.4789
14.240,75.2371
14.250,74.9672
14.260,72.8519
14.270,69.4303
14.280,76.6733
14.290,67.2974
14.300,70.3725
14.310,68.5312
14.320,69.5931
14.330,72.7952
14.340,74.5277
14.350,77.2663
14.360,72.7832
14.370,74.2245
14.380,76.1789
14.390,79.3870
14.400,80.1639
14.410,72.5653
14.420,74.6495
14.430,70.6375
14.440,82.7136
14.450,74.1623
14.460,79.3680
14.470,74.8561
14.480,75.6650
14.490,71.2575
14.500,80.8153
14.510,71.7637
14.520,84.6396
14.530,75.6772
14.540,80.0089
14.550,78.7328
14.560,75.7493
14.570,83.5423
14.580,83.5453
14.590,78.5446
14.600,79.4216
14.610,73.6005
14.620,83.6191
14.630,81.9767
14.640,74.6399
14.650,85.4440
14.660,75.2814
14.670,77.5878
14.680,83.1856
14.690,74.6592
14.700,72.4393
14.710,71.7425
14.720,80.2050
14.730,81.7189
14.740,72.8113
14.750,78.0290
14.760,77.5955
14.770,77.3512
14.780,81.4293
14.790,77.7502
14.800,83.8831
14.810,72.0524
14.820,71.3226
14.830,76.0054
14.840,77.0464
14.850,73.8497
14.860,82.5913
14.870,76.7996
14.880,78.3010
14.890,73.9224
14.900,79.2412
14.910,78.0762
14.920,74.7519
14.930,80.4215
14.940,79.0496
14.950,70.0118
14.960,72.8058
14.970,79.0769
14.980,80.4584
14.990,73.6988
15.000,68.3336
15.010,76.9361
15.020,72.3668
15.030,72.4017
15.040,77.3543
15.050,72.8819
15.060,76.0889
15.070,76.3639
15.080,79.0425
15.090,84.8885
15.100,79.7939
15.110,89.7698
15.120,92.2290
15.130,92.6897
15.140,87.3168
15.150,92.3453
15.160,90.5688
15.170,98.1817
15.180,100.0281
15.190,100.2104
15.200,95.2709
15.210,100.4354
15.220,100.1589
15.230,98.3536
15.240,103.2567
15.250,102.5724
15.260,97.4522
15.270,96.6501
15.280,106.7305
15.290,110.8216
15.300,104.7396
15.310,112.9000
15.320,112.8512
15.330,104.3926
15.340,116.9578
15.350,115.0674
15.360,116.9729
15.370,118.7540
15.380,118.1702
15.390,113.6454
15.400,121.7365
15.410,120.5166
15.420,125.7468
15.430,123.8837
15.440,119.2931
15.450,120.9592
15.460,124.7708
15.470,125.2998
15.480,132.9709
15.490,123.0244
15.500,129.5226
15.510,127.1517
15.520,126.7279
15.530,132.2994
15.540,129.8231
15.550,140.4197
15.560,128.9857
15.570,141.7196
15.580,132.7853
15.590,139.4910
15.600,134.7117
15.610,141.5076
15.620,141.2949
15.630,149.1795
15.640,148.8658
15.650,150.7363
15.660,152.0638
15.670,153.5969
15.680,151.8350
15.690,153.3764
15.700,152.6373
15.710,150.8437
15.720,152.9676
15.730,158.2447
15.740,161.4852
15.750,156.0347
15.760,159.7247
15.770,153.3277
15.780,159.8409
15.790,160.7886
15.800,160.2683
15.810,161.6760
15.820,161.9325
15.830,165.7741
15.840,170.5114
15.850,170.9412
15.860,169.6691
15.870,175.9099
15.880,173.0994
15.890,172.4140
15.900,170.7449
15.910,166.9876
15.920,173.8018
15.930,177.5977
15.940,178.5516
15.950,171.9655
15.960,172.3341
15.970,176.9418
15.980,185.4105
15.990,178.7409
16.000,184.7086
16.010,188.8405
16.020,187.3841
16.030,190.4244
16.040,179.0553
16.050,178.6873
16.060,190.4918
16.070,189.5068
16.080,182.4856
16.090,178.6821
16.100,184.1497
16.110,180.0346
16.120,178.8324
16.130,187.9757
16.140,186.1063
16.150,184.7004
16.160,188.2532
16.170,188.0418
16.180,186.0291
16.190,188.4018
16.200,181.1342
16.210,189.1067
16.220,188.4215
16.230,182.8031
16.240,181.9356
16.250,182.7340
16.260,184.2803
16.270,183.8579
16.280,190.5039
16.290,185.3801
16.300,177.5211
16.310,186.6168
16.320,182.0399
16.330,178.2595
16.340,183.7317
16.350,189.3369
16.360,179.9425
16.370,180.4209
16.380,187.6114
16.390,188.3502
16.400,189.6516
16.410,179.1628
16.420,185.2092
16.430,187.5286
16.440,189.9353
16.450,181.3105
16.460,190.3889
16.470,190.6839
16.480,182.8355
16.490,186.1414
16.500,187.6882
16.510,180.7072
16.520,183.5571
16.530,181.6001
16.540,189.7142
16.550,181.2001
16.560,189.2896
16.570,188.5286
16.580,184.5569
16.590,185.7968
16.600,189.5492
16.610,187.2024
16.620,185.7817
16.630,182.8048
16.640,190.2770
16.650,190.5397
16.660,178.9483
16.670,186.5402
16.680,183.9984
16.690,188.8315
16.700,177.2980
16.710,187.1030
16.720,187.0877
16.730,190.7887
16.740,187.5477
16.750,184.7672
16.760,178.6713
16.770,186.7729
16.780,185.7098
16.790,179.8253
16.800,185.5261
16.810,183.6430
16.820,184.4854
16.830,190.0416
16.840,181.1085
16.850,184.3066
16.860,189.8346
16.870,180.7295
16.880,183.4763
16.890,185.7966
16.900,190.7271
16.910,179.5708
16.920,186.3150
16.930,183.3261
16.940,183.4280
16.950,185.7714
16.960,181.3335
16.970,186.6990
16.980,178.2243
16.990,189.3192
17.000,72.4691
17.010,66.4255
17.020,69.9789
17.030,70.0939
17.040,72.7258
17.050,66.0720
17.060,77.9118
17.070,71.3267
17.080,69.3052
17.090,77.8959
17.100,71.9556
17.110,75.3012
17.120,70.9631
17.130,79.5893
17.140,79.7427
17.150,69.2915
17.160,68.2658
17.170,70.3967
17.180,73.1798
17.190,73.8745
17.200,70.3381
17.210,78.4309
17.220,82.2761
17.230,75.1612
17.240,70.5497
17.250,71.6967
17.260,75.9061
17.270,74.7956
17.280,74.4941
17.290,79.7769
17.300,82.4221
17.310,71.5632
17.320,77.9081
17.330,73.4316
17.340,74.0211
17.350,78.7534
17.360,72.5991
17.370,76.6867
17.380,73.4852
17.390,80.9039
17.400,84.3105
17.410,83.5433
17.420,82.0238
17.430,81.9721
17.440,82.6490
17.450,75.4563
17.460,73.1535
17.470,75.8844
17.480,86.3058
17.490,86.1101
17.500,77.7911
17.510,72.8140
17.520,85.7157
17.530,78.6044
17.540,85.6963
17.550,78.2270
17.560,79.0708
17.570,85.5681
17.580,85.2303
17.590,75.6927
17.600,75.9043
17.610,78.4106
17.620,82.2577
17.630,78.6386
17.640,75.1694
17.650,82.3211
17.660,72.0181
17.670,82.4075
17.680,83.2178
17.690,78.8967
17.700,76.0984
17.710,82.7790
17.720,79.6390
17.730,75.5541
17.740,81.5497
17.750,75.2627
17.760,70.5453
17.770,70.5683
17.780,80.0853
17.790,78.0766
17.800,75.8788
17.810,80.7520
17.820,75.3090
17.830,80.4882
17.840,73.2638
17.850,69.1403
17.860,74.3805
17.870,77.5260
17.880,78.9983
17.890,76.1002
17.900,72.9608
17.910,76.9194
17.920,71.2570
17.930,67.1498
17.940,77.7411
17.950,77.8447
17.960,66.0429
17.970,67.9092
17.980,72.7165
17.990,77.2794
18.000,73.7982
18.010,70.6547
18.020,76.5998
18.030,73.3137
18.040,63.4025
18.050,66.1556
18.060,68.4655
18.070,63.4977
18.080,64.1834
18.090,74.8915
18.100,67.3836
18.110,71.3133
18.120,72.0461
18.130,68.0163
18.140,65.9266
18.150,70.9303
18.160,67.2199
18.170,72.3550
18.180,68.1005
18.190,67.1519
18.200,70.4149
18.210,70.3537
18.220,72.0086
18.230,63.5355
18.240,66.3013
18.250,71.0252
18.260,62.4834
18.270,74.0278
18.280,67.1042
18.290,67.3609
18.300,67.9936
18.310,63.6068
18.320,75.4952
18.330,71.4343
18.340,67.5288
18.350,67.3011
18.360,71.1267
18.370,65.8527
18.380,66.8996
18.390,76.0434
18.400,71.8601
18.410,76.0204
18.420,67.1027
18.430,71.6510
18.440,75.7245
18.450,74.8054
18.460,72.4169
18.470,74.5325
18.480,66.2007
18.490,78.6317
18.500,67.0587
18.510,74.4253
18.520,70.9551
18.530,68.9259
18.540,76.0029
18.550,66.7000
18.560,74.0922
18.570,67.7672
18.580,75.1820
18.590,77.9629
18.600,80.5002
18.610,79.5562
18.620,68.7913
18.630,75.4356
18.640,68.9779
18.650,81.1624
18.660,77.1942
18.670,78.8214
18.680,72.4206
18.690,73.9659
18.700,79.0883
18.710,78.1756
18.720,82.2906
18.730,84.5739
18.740,77.4654
18.750,79.3628
18.760,83.8235
18.770,78.8929
18.780,80.6962
18.790,82.5829
18.800,76.5554
18.810,73.5756
18.820,85.2593
18.830,81.7709
18.840,77.4202
18.850,75.8641
18.860,75.8271
18.870,78.5618
18.880,77.4907
18.890,82.1351
18.900,85.7888
18.910,84.1283
18.920,75.7386
18.930,83.8761
18.940,77.6073
18.950,79.8015
18.960,75.8277
18.970,77.3520
18.980,76.1361
18.990,82.3498
19.000,77.0980
19.010,82.8707
19.020,85.5492
19.030,85.3740
19.040,83.0460
19.050,75.1679
19.060,80.4248
19.070,85.0462
19.080,77.6986
19.090,73.2454
19.100,73.0604
19.110,83.0402
19.120,74.6954
19.130,73.6084
19.140,77.4931
19.150,83.3153
19.160,73.0036
19.170,78.9636
19.180,72.9955
19.190,73.9078
19.200,75.6921
19.210,71.1785
19.220,71.1724
19.230,80.4569
19.240,76.2833
19.250,75.9553
19.260,73.6816
19.270,69.5262
19.280,71.5044
19.290,71.0337
19.300,76.4698
19.310,68.0389
19.320,78.9269
19.330,66.8981
19.340,78.8313
19.350,66.5647
19.360,73.4436
19.370,74.0003
19.380,67.2021
19.390,78.1536
19.400,67.0920
19.410,69.9271
19.420,69.4415
19.430,66.9459
19.440,66.2904
19.450,69.9946
19.460,65.6056
19.470,68.1622
19.480,76.5500
19.490,64.8299
19.500,65.6447
19.510,71.1568
19.520,75.3990
19.530,66.1999
19.540,63.2136
19.550,62.6884
19.560,74.4684
19.570,63.8936
19.580,75.4899
19.590,63.1184
19.600,62.7274
19.610,67.5346
19.620,75.4536
19.630,62.0575
19.640,67.9078
19.650,74.0032
19.660,65.1594
19.670,65.6749
19.680,64.8234
19.690,69.6680
19.700,71.6991
19.710,73.9034
19.720,69.7781
19.730,74.4703
19.740,67.5683
19.750,71.8597
19.760,70.6057
19.770,74.7018
19.780,68.3732
19.790,68.0435
19.800,76.2115
19.810,70.9317
19.820,73.0958
19.830,66.1715
19.840,72.4886
19.850,64.3820
19.860,77.7573
19.870,74.5038
19.880,68.8674
19.890,69.4964
19.900,74.1481
19.910,73.3219
19.920,79.1330
19.930,72.3609
19.940,72.5992
19.950,69.0772
19.960,76.7449
19.970,71.1897
19.980,75.6316
19.990,77.4805
20.000,67.5647
20.010,77.6817
20.020,72.3320
20.030,77.4014
20.040,74.5567
20.050,70.1597
20.060,77.7065
20.070,75.2790
20.080,74.6647
20.090,70.8286
20.100,72.2484
20.110,74.3632
20.120,75.5265
20.130,84.2760
20.140,73.8161
20.150,70.9291
20.160,80.2425
20.170,76.4553
20.180,79.6848
20.190,75.7549
20.200,85.5648
20.210,72.4190
20.220,74.7700
20.230,81.5337
20.240,85.9150
20.250,77.8832
20.260,74.9554
20.270,86.5540
20.280,79.4189
20.290,81.5700
20.300,81.7811
20.310,74.1552
20.320,74.1983
20.330,79.4162
20.340,77.5841
20.350,77.4461
20.360,76.0718
20.370,75.0528
20.380,75.0897
20.390,80.1648
20.400,79.9758
20.410,86.7065
20.420,83.4915
20.430,77.2794
20.440,86.0849
20.450,85.6928
20.460,81.8110
20.470,80.2031
20.480,76.3033
20.490,74.8677
20.500,82.1256
20.510,74.5129
20.520,81.4504
20.530,80.0245
20.540,74.7252
20.550,73.4597
20.560,84.8396
20.570,78.4549
20.580,76.2982
20.590,82.7472
20.600,81.1403
20.610,70.3150
20.620,75.7942
20.630,71.8773
20.640,78.1300
20.650,80.8551
20.660,75.2183
20.670,80.9691
20.680,77.0972
20.690,73.9383
20.700,79.7114
20.710,71.4060
20.720,68.8800
20.730,74.3705
20.740,69.5188
20.750,79.2726
20.760,79.0084
20.770,71.7802
20.780,67.1190
20.790,75.2719
20.800,66.7829
20.810,69.1307
20.820,75.5463
20.830,68.1623
20.840,69.6776
20.850,70.2266
20.860,75.8310
20.870,67.4674
20.880,67.2345
20.890,64.9429
20.900,66.2432
20.910,64.9415
20.920,65.3774
20.930,70.4322
20.940,69.1629
20.950,68.0257
20.960,63.6014
20.970,66.4519
20.980,73.0586
20.990,64.1299
21.000,76.1957
21.010,74.1576
21.020,64.0192
21.030,68.2498
21.040,70.5275
21.050,72.4833
21.060,65.9584
21.070,63.3821
21.080,73.3214
21.090,67.7350
21.100,64.7073
21.110,69.6835
21.120,73.3072
21.130,74.8548
21.140,71.1944
21.150,63.1963
21.160,65.1909
21.170,71.1492
21.180,65.2122
21.190,68.8318
21.200,64.7231
21.210,68.2146
21.220,65.9678
21.230,73.9818
21.240,66.4912
21.250,70.3153
21.260,67.4532
21.270,67.0786
21.280,69.5480
21.290,75.8120
21.300,78.6565
21.310,67.1170
21.320,78.0349
21.330,72.1402
21.340,75.5486
21.350,67.2456
21.360,70.2580
21.370,71.6094
21.380,79.4322
21.390,68.6615
21.400,80.2390
21.410,80.1521
21.420,73.4708
21.430,74.3463
21.440,79.2294
21.450,81.0656
21.460,82.3796
21.470,79.9343
21.480,76.4961
21.490,77.9252
21.500,72.8334
21.510,75.1361
21.520,81.9407
21.530,79.3598
21.540,78.5574
21.550,77.6439
21.560,78.7401
21.570,77.0624
21.580,77.4834
21.590,78.8932
21.600,83.4112
21.610,80.3117
21.620,84.7468
21.630,82.8378
21.640,77.4829
21.650,77.7639
21.660,85.2981
21.670,83.1887
21.680,85.1307
21.690,77.6327
21.700,75.3789
21.710,76.6269
21.720,84.4434
21.730,75.6492
21.740,73.8683
21.750,80.3959
21.760,74.2817
21.770,81.7536
21.780,74.2087
21.790,78.4622
21.800,75.6759
21.810,84.9910
21.820,80.4073
21.830,81.7656
21.840,77.1826
21.850,74.2110
21.860,79.3096
21.870,77.6099
21.880,86.3330
21.890,85.8254
21.900,82.7810
21.910,74.4817
21.920,85.6861
21.930,75.0961
21.940,74.3810
21.950,80.5510
21.960,72.2894
21.970,80.1631
21.980,75.1014
21.990,77.1680
22.000,79.4062
22.010,78.5686
22.020,75.9692
22.030,70.8943
22.040,72.8401
22.050,80.6379
22.060,70.2069
22.070,83.1041
22.080,79.2480
22.090,70.1939
22.100,71.7949
22.110,72.0346
22.120,72.9596
22.130,74.1593
22.140,77.4382
22.150,70.3725
22.160,77.0999
22.170,77.3974
22.180,67.5524
22.190,77.1540
22.200,73.1346
22.210,69.8174
22.220,69.5878
22.230,71.7574
22.240,75.5313
22.250,71.7765
22.260,77.5779
22.270,77.7569
22.280,68.7134
22.290,76.3820
22.300,77.9362
22.310,72.4453
22.320,68.2811
22.330,70.9332
22.340,63.9406
22.350,76.0278
22.360,73.0438
22.370,69.4635
22.380,65.0649
22.390,69.0902
22.400,75.1730
22.410,76.5317
22.420,68.2257
22.430,63.9693
22.440,64.8710
22.450,68.1297
22.460,69.7632
22.470,65.4323
22.480,71.0126
22.490,73.5741
22.500,66.5868
22.510,67.5506
22.520,65.5196
22.530,64.3331
22.540,66.8097
22.550,71.2323
22.560,68.9485
22.570,73.9141
22.580,70.2347
22.590,70.7782
22.600,68.5211
22.610,68.3254
22.620,66.6917
22.630,75.6186
22.640,66.6313
22.650,71.3745
22.660,68.0760
22.670,64.1609
22.680,71.4820
22.690,67.9392
22.700,78.0240
22.710,69.6237
22.720,78.1965
22.730,77.4423
22.740,71.6199
22.750,65.8060
22.760,76.7703
22.770,73.6296
22.780,71.9883
22.790,78.3374
22.800,75.6178
22.810,68.4535
22.820,76.1030
22.830,70.0882
22.840,78.5797
22.850,69.3407
22.860,72.9801
22.870,74.0588
22.880,79.6156
22.890,70.1733
22.900,81.0052
22.910,82.3573
22.920,77.6236
22.930,70.4862
22.940,78.7685
22.950,77.0961
22.960,73.6579
22.970,75.9529
22.980,81.0303
22.990,84.5648
23.000,77.7064
23.010,84.2767
23.020,81.1236
23.030,77.2783
23.040,80.5184
23.050,72.9240
23.060,82.8751
23.070,84.2175
23.080,81.6190
23.090,76.3120
23.100,79.3447
23.110,80.4564
23.120,76.1356
23.130,86.1812
23.140,81.0817
23.150,79.7319
23.160,74.7811
23.170,82.2422
23.180,77.3877
23.190,82.3987
23.200,75.3353
23.210,78.8922
23.220,82.0545
23.230,74.4794
23.240,77.6302
23.250,79.3734
23.260,81.2185
23.270,80.8413
23.280,75.6579
23.290,82.9995
23.300,83.4506
23.310,79.4541
23.320,77.3982
23.330,78.3651
23.340,74.4785
23.350,85.5939
23.360,74.2599
23.370,80.3486
23.380,79.5016
23.390,85.2591
23.400,78.2306
23.410,85.4284
23.420,72.1683
23.430,80.4898
23.440,78.7986
23.450,78.5288
23.460,71.3200
23.470,80.6244
23.480,75.3088
23.490,80.4879
23.500,78.3374
23.510,77.8094
23.520,70.3494
23.530,70.3004
23.540,70.5910
23.550,78.8997
23.560,79.6869
23.570,73.2994
23.580,70.1260
23.590,71.8790
23.600,75.5805
23.610,76.1457
23.620,74.6029
23.630,69.0982
23.640,72.5895
23.650,73.2552
23.660,74.8940
23.670,73.6628
23.680,78.3842
23.690,69.6235
23.700,69.7375
23.710,65.6005
23.720,78.8620
23.730,67.5857
23.740,65.1487
23.750,74.6800
23.760,67.2368
23.770,69.4618
23.780,65.7796
23.790,66.6748
23.800,71.1046
23.810,64.0838
23.820,65.5250
23.830,67.8889
23.840,75.0600
23.850,63.2928
23.860,68.3087
23.870,75.5946
23.880,74.6385
23.890,70.6042
23.900,63.8962
23.910,69.5443
23.920,64.5420
23.930,67.8493
23.940,66.0545
23.950,67.2968
23.960,70.1699
23.970,73.3881
23.980,70.6184
23.990,69.8159
24.000,72.3498
24.010,77.0248
24.020,74.6491
24.030,76.8802
24.040,75.6881
24.050,70.8078
24.060,68.5527
24.070,68.1153
24.080,75.5594
24.090,66.4136
24.100,76.5479
24.110,69.2162
24.120,71.8722
24.130,76.0868
24.140,72.8254
24.150,75.0449
24.160,67.6739
24.170,67.5154
24.180,76.2407
24.190,78.0730
24.200,73.8268
24.210,67.4867
24.220,80.7764
24.230,73.1194
24.240,80.1736
24.250,69.7405
24.260,73.8304
24.270,71.3950
24.280,76.0836
24.290,78.8747
24.300,78.1964
24.310,80.0142
24.320,81.8303
24.330,70.6948
24.340,81.0114
24.350,76.8934
24.360,77.6476
24.370,75.8555
24.380,78.6797
24.390,73.1570
24.400,71.8690
24.410,79.0685
24.420,74.2244
24.430,77.1534
24.440,85.6535
24.450,84.8857
24.460,82.0766
24.470,73.3778
24.480,75.3325
24.490,79.3488
24.500,80.8014
24.510,78.2297
24.520,85.5277
24.530,85.0190
24.540,83.4823
24.550,81.0173
24.560,83.2398
24.570,77.6890
24.580,75.4856
24.590,85.5532
24.600,76.1834
24.610,76.1862
24.620,86.2821
24.630,85.9411
24.640,79.2808
24.650,75.2887
24.660,84.4022
24.670,87.4267
24.680,84.5127
24.690,76.7078
24.700,78.0802
24.710,84.4722
24.720,82.0977
24.730,86.6598
24.740,75.6712
24.750,83.2323
24.760,82.7076
24.770,85.0922
24.780,86.2959
24.790,80.5315
24.800,82.3790
24.810,81.9659
24.820,73.9722
24.830,77.7243
24.840,77.8609
24.850,81.4618
24.860,82.5892
24.870,82.2300
24.880,73.8411
24.890,80.2506
24.900,74.9678
24.910,74.1634
24.920,73.3817
24.930,73.6426
24.940,74.6304
24.950,76.9733
24.960,78.8326
24.970,78.4064
24.980,76.9829
24.990,75.1075
25.000,73.7714
25.010,74.4782
25.020,80.2857
25.030,78.4838
25.040,80.6066
25.050,68.3401
25.060,77.7561
25.070,68.3560
25.080,79.5724
25.090,67.3088
25.100,77.3322
25.110,69.9089
25.120,68.8912
25.130,70.4339
25.140,78.5052
25.150,73.0238
25.160,69.9009
25.170,75.5624
25.180,73.0446
25.190,66.5409
25.200,70.8474
25.210,65.8113
25.220,67.8416
25.230,68.5210
25.240,77.2891
25.250,71.3267
25.260,71.4364
25.270,77.3395
25.280,66.9533
25.290,67.0379
25.300,69.5723
25.310,64.7388
25.320,70.0612
25.330,76.8402
25.340,63.9029
25.350,65.4499
25.360,74.1858
25.370,75.3436
25.380,72.2912
25.390,71.3179
25.400,76.6615
25.410,65.0997
25.420,67.9662
25.430,68.6690
25.440,73.5396
25.450,65.7437
25.460,70.7708
25.470,68.4349
25.480,73.1580
25.490,72.1484
25.500,75.1984
25.510,73.8920
25.520,65.0216
25.530,73.4788
25.540,71.1586
25.550,68.9413
25.560,70.2259
25.570,79.3028
25.580,74.7320
25.590,76.4518
25.600,68.2765
25.610,76.7191
25.620,77.2686
25.630,74.4356
25.640,67.6725
25.650,79.3279
25.660,76.7616
25.670,77.8449
25.680,81.6334
25.690,79.6921
25.700,79.3981
25.710,80.0113
25.720,78.3322
25.730,74.6561
25.740,75.2101
25.750,80.1307
25.760,76.2550
25.770,71.6642
25.780,75.6201
25.790,79.3314
25.800,71.1190
25.810,76.2642
25.820,72.6645
25.830,83.6085
25.840,74.2956
25.850,76.4069
25.860,80.7191
25.870,85.1887
25.880,80.6607
25.890,79.3777
25.900,77.9841
25.910,84.1467
25.920,80.3495
25.930,86.5798
25.940,85.1885
25.950,75.6563
25.960,73.8919
25.970,87.5522
25.980,85.7164
25.990,80.3065
26.000,83.7204
26.010,81.6874
26.020,80.0105
26.030,84.9996
26.040,87.8995
26.050,82.7470
26.060,80.4754
26.070,86.3812
26.080,77.9738
26.090,79.1401
26.100,87.5063
26.110,75.4198
26.120,82.9965
26.130,77.3676
26.140,86.3688
26.150,77.6658
26.160,74.1746
26.170,87.5305
26.180,86.0773
26.190,78.2684
26.200,86.1378
26.210,84.5045
26.220,83.2457
26.230,80.0050
26.240,86.9679
26.250,79.4986
26.260,83.5640
26.270,82.5484
26.280,85.6123
26.290,72.5050
26.300,74.0126
26.310,81.4963
26.320,76.8360
26.330,72.9349
26.340,79.3998
26.350,78.6186
26.360,73.4576
26.370,75.2284
26.380,77.3229
26.390,80.4292
26.400,77.9061
26.410,70.8630
26.420,81.6873
26.430,76.9171
26.440,77.9183
26.450,81.1351
26.460,80.0746
26.470,68.0259
26.480,70.6156
26.490,68.0702
26.500,72.6454
26.510,70.3207
26.520,70.6676
26.530,68.7413
26.540,74.3124
26.550,77.4927
26.560,78.3884
26.570,72.5854
26.580,71.6232
26.590,78.2562
26.600,77.7764
26.610,65.4210
26.620,74.3694
26.630,66.7186
26.640,74.6013
26.650,69.8037
26.660,72.4946
26.670,66.6666
26.680,75.7468
26.690,72.5663
26.700,76.9589
26.710,73.7740
26.720,71.9453
26.730,68.4334
26.740,74.3328
26.750,66.7664
26.760,71.0361
26.770,68.9966
26.780,74.6374
26.790,65.9865
26.800,75.1401
26.810,66.3368
26.820,76.3910
26.830,69.0564
26.840,73.0939
26.850,73.7708
26.860,72.8058
26.870,72.4652
26.880,75.1107
26.890,66.7778
26.900,73.3895
26.910,76.2155
26.920,71.3084
26.930,77.8281
26.940,66.3893
26.950,66.8148
26.960,72.8948
26.970,67.7114
26.980,72.5205
26.990,65.7721
27.000,74.5555
27.010,72.2179
27.020,80.2036
27.030,77.4265
27.040,73.0518
27.050,73.5317
27.060,76.6403
27.070,69.9937
27.080,68.3665
27.090,71.0466
27.100,77.2465
27.110,76.4870
27.120,79.0438
27.130,70.6019
27.140,73.5765
27.150,73.2623
27.160,80.6574
27.170,75.7998
27.180,82.8923
27.190,82.7568
27.200,79.1206
27.210,78.2822
27.220,83.2647
27.230,78.9322
27.240,83.2596
27.250,83.6420
27.260,78.0651
27.270,74.3813
27.280,81.1279
27.290,78.0129
27.300,82.3477
27.310,75.4067
27.320,83.2194
27.330,75.4130
27.340,73.7184
27.350,76.3545
27.360,85.4829
27.370,78.8757
27.380,85.9780
27.390,75.4502
27.400,81.8687
27.410,84.8267
27.420,84.2204
27.430,87.7193
27.440,80.7633
27.450,83.3134
27.460,84.1102
27.470,82.0338
27.480,79.8120
27.490,79.2708
27.500,84.7944
27.510,75.7130
27.520,80.5361
27.530,88.5788
27.540,77.9603
27.550,83.6334
27.560,75.3808
27.570,87.7792
27.580,74.5207
27.590,80.9280
27.600,77.3347
27.610,87.8027
27.620,80.3626
27.630,76.4230
27.640,79.2670
27.650,82.3895
27.660,83.8209
27.670,86.8030
27.680,75.2239
27.690,78.8123
27.700,80.0085
27.710,80.1483
27.720,80.0378
27.730,80.3395
27.740,79.6226
27.750,77.5425
27.760,83.4254
27.770,80.2552
27.780,78.8171
27.790,81.6910
27.800,77.4676
27.810,76.7228
27.820,71.5873
27.830,74.5645
27.840,80.8258
27.850,71.2999
27.860,81.6245
27.870,71.2586
27.880,81.5811
27.890,72.1828
27.900,78.2389
27.910,69.3975
27.920,76.1118
27.930,73.6737
27.940,72.5284
27.950,78.6238
27.960,69.7957
27.970,70.1787
27.980,67.2619
27.990,70.6005
28.000,76.5009
28.010,77.3581
28.020,77.7348
28.030,78.1003
28.040,71.4335
28.050,72.3412
28.060,71.1290
28.070,73.1779
28.080,65.3553
28.090,77.7474
28.100,77.9491
28.110,74.4035
28.120,68.4990
28.130,65.1818
28.140,71.0214
28.150,70.1704
28.160,72.5295
28.170,64.2448
28.180,76.4524
28.190,68.8358
28.200,65.2647
28.210,70.1987
28.220,73.0961
28.230,72.7536
28.240,77.2331
28.250,77.4523
28.260,72.9576
28.270,65.3253
28.280,71.8591
28.290,66.7235
28.300,70.6093
28.310,78.0459
28.320,71.9704
28.330,78.0492
28.340,72.4005
28.350,76.5271
28.360,77.3367
28.370,70.7356
28.380,73.4727
28.390,67.9346
28.400,71.3457
28.410,77.9883
28.420,77.5280
28.430,73.5357
28.440,75.2352
28.450,71.8566
28.460,74.4971
28.470,79.4153
28.480,74.5374
28.490,75.2649
28.500,81.0375
28.510,73.7501
28.520,80.9934
28.530,76.0123
28.540,80.8882
28.550,77.4714
28.560,76.2434
28.570,78.1075
28.580,72.4393
28.590,70.9557
28.600,70.6390
28.610,83.4722
28.620,80.5902
28.630,84.2600
28.640,71.7784
28.650,71.4925
28.660,77.5382
28.670,74.1700
28.680,83.7572
28.690,80.7515
28.700,76.5739
28.710,79.3521
28.720,85.7760
28.730,82.1176
28.740,79.3194
28.750,76.6215
28.760,80.5138
28.770,79.8692
28.780,74.6690
28.790,84.8313
28.800,79.0841
28.810,83.1364
28.820,76.5936
28.830,81.6996
28.840,85.6809
28.850,80.9308
28.860,88.0048
28.870,84.5943
28.880,76.7967
28.890,77.9071
28.900,83.4875
28.910,84.2428
28.920,85.1428
28.930,80.4731
28.940,87.5835
28.950,88.7253
28.960,81.5653
28.970,77.9155
28.980,75.2322
28.990,76.2734
29.000,80.0125
29.010,86.5946
29.020,86.0666
29.030,77.5873
29.040,88.3930
29.050,85.8145
29.060,84.3130
29.070,87.8347
29.080,79.0180
29.090,82.7475
29.100,86.7209
29.110,77.7854
29.120,84.0366
29.130,84.5869
29.140,77.3896
29.150,75.0979
29.160,73.7668
29.170,80.5634
29.180,85.5368
29.190,83.2228
29.200,75.8917
29.210,77.6162
29.220,78.1989
29.230,71.9737
29.240,73.4528
29.250,76.2495
29.260,83.4745
29.270,75.2753
29.280,76.1442
29.290,77.8189
29.300,80.8632
29.310,71.8878
29.320,80.0270
29.330,80.7379
29.340,76.7767
29.350,69.3472
29.360,69.3517
29.370,76.8145
29.380,69.9951
29.390,79.5671
29.400,79.1145
29.410,80.5706
29.420,69.7722
29.430,73.0739
29.440,78.3437
29.450,69.1662
29.460,76.4916
29.470,69.1573
29.480,67.2355
29.490,69.3271
29.500,68.7625
29.510,77.1783
29.520,72.6533
29.530,67.1730
29.540,69.4233
29.550,70.6160
29.560,73.6715
29.570,69.7322
29.580,71.2052
29.590,76.3566
29.600,76.4337
29.610,73.9579
29.620,66.3312
29.630,71.8166
29.640,64.4784
29.650,70.5050
29.660,65.3779
29.670,76.3661
29.680,70.3544
29.690,67.6368
29.700,75.4727
29.710,70.6682
29.720,68.8802
29.730,72.1239
29.740,77.5270
29.750,67.7177
29.760,72.2688
29.770,77.8998
29.780,72.3924
29.790,72.3302
29.800,72.7332
29.810,67.3031
29.820,76.0545
29.830,77.2227
29.840,78.2023
29.850,79.6552
29.860,75.0496
29.870,69.8167
29.880,71.8665
29.890,72.8257
29.900,69.1605
29.910,71.7570
29.920,71.8145
29.930,81.9074
29.940,72.0312
29.950,75.4985
29.960,80.5271
29.970,78.5072
29.980,75.4574
29.990,71.1622
30.000,79.9060
30.010,77.6778
30.020,77.9840
30.030,74.0805
30.040,82.1219
30.050,88.7309
30.060,85.3403
30.070,79.2146
30.080,89.6221
30.090,92.6488
30.100,88.3657
30.110,95.7590
30.120,87.1241
30.130,88.7142
30.140,92.2382
30.150,91.3527
30.160,88.4378
30.170,100.2149
30.180,91.2268
30.190,94.6294
30.200,99.4644
30.210,100.4781
30.220,107.1945
30.230,107.9236
30.240,103.1705
30.250,109.4692
30.260,110.6203
30.270,113.8553
30.280,106.4951
30.290,111.3762
30.300,109.4804
30.310,118.0619
30.320,107.5518
30.330,116.2487
30.340,111.0938
30.350,122.5007
30.360,116.0570
30.370,123.2182
30.380,116.6639
30.390,119.5334
30.400,128.8143
30.410,119.6324
30.420,130.5370
30.430,120.5628
30.440,122.5988
30.450,127.7396
30.460,135.8852
30.470,127.1676
30.480,130.1089
30.490,134.1276
30.500,132.9765
30.510,136.5436
30.520,142.7487
30.530,132.1013
30.540,142.2656
30.550,143.3941
30.560,141.5411
30.570,146.6874
30.580,150.1585
30.590,143.5975
30.600,150.2670
30.610,153.4831
30.620,153.0551
30.630,149.0130
30.640,152.5862
30.650,147.3234
30.660,152.3325
30.670,152.7559
30.680,160.7165
30.690,153.2515
30.700,153.0593
30.710,156.8850
30.720,159.1390
30.730,161.2304
30.740,168.0194
30.750,169.8827
30.760,158.9234
30.770,164.7177
30.780,164.7730
30.790,172.8938
30.800,169.3066
30.810,171.2632
30.820,168.7387
30.830,174.2063
30.840,179.7413
30.850,180.7355
30.860,177.7938
30.870,183.6240
30.880,177.5456
30.890,175.1621
30.900,176.4651
30.910,177.1594
30.920,185.1280
30.930,188.5124
30.940,185.3512
30.950,190.2345
30.960,184.3810
30.970,185.0010
30.980,188.9129
30.990,185.7911
31.000,190.1737
31.010,193.2697
31.020,199.6050
31.030,191.4308
31.040,197.0535
31.050,191.8352
31.060,193.8985
31.070,186.7435
31.080,198.9741
31.090,188.9681
31.100,195.7723
31.110,187.7745
31.120,193.7445
31.130,189.5538
31.140,190.6221
31.150,191.3388
31.160,190.6020
31.170,195.0790
31.180,197.1603
31.190,190.8689
31.200,193.2285
31.210,197.6000
31.220,190.8158
31.230,195.0030
31.240,186.7634
31.250,190.4852
31.260,186.6808
31.270,197.1750
31.280,190.6125
31.290,192.4918
31.300,187.7488
31.310,187.2178
31.320,198.0868
31.330,189.2991
31.340,196.7371
31.350,186.1556
31.360,194.5736
31.370,186.0776
31.380,190.5050
31.390,197.2462
31.400,194.9232
31.410,189.7026
31.420,186.7456
31.430,199.0303
31.440,199.0414
31.450,198.0675
31.460,189.0641
31.470,186.6449
31.480,194.9775
31.490,199.6306
31.500,188.7699
31.510,187.1792
31.520,196.4704
31.530,189.8491
31.540,193.4732
31.550,195.7166
31.560,199.1165
31.570,186.9542
31.580,186.2727
31.590,197.2543
31.600,187.6407
31.610,196.1221
31.620,189.0080
31.630,199.3137
31.640,197.3927
31.650,194.5919
31.660,198.5490
31.670,195.5494
31.680,197.0405
31.690,189.4506
31.700,189.0847
31.710,197.0879
31.720,197.6800
31.730,195.8095
31.740,193.3732
31.750,188.8970
31.760,189.9085
31.770,199.2004
31.780,188.2200
31.790,188.8478
31.800,191.3641
31.810,193.8919
31.820,194.2119
31.830,189.6191
31.840,194.6296
31.850,199.1179
31.860,186.4852
31.870,198.2868
31.880,197.4138
31.890,188.8883
31.900,194.9258
31.910,188.4541
31.920,193.2192
31.930,197.9568
31.940,192.7087
31.950,189.7994
31.960,189.9882
31.970,189.6842
31.980,199.1893
31.990,198.9132
32.000,84.7673
32.010,84.1035
32.020,74.5785
32.030,80.2792
32.040,76.8939
32.050,82.2553
32.060,86.2337
32.070,85.9043
32.080,76.2579
32.090,78.0323
32.100,75.7834
32.110,81.4803
32.120,84.5535
32.130,78.2614
32.140,72.7104
32.150,79.8130
32.160,78.1544
32.170,70.3696
32.180,80.1808
32.190,71.4247
32.200,75.2649
32.210,69.2580
32.220,80.0478
32.230,75.3309
32.240,69.7231
32.250,74.3339
32.260,75.5682
32.270,76.8481
32.280,77.3013
32.290,74.6329
32.300,74.4228
32.310,78.6874
32.320,75.7047
32.330,66.7635
32.340,67.2686
32.350,73.0750
32.360,73.1396
32.370,79.1883
32.380,71.1732
32.390,78.1764
32.400,71.3487
32.410,67.9301
32.420,74.4502
32.430,72.7026
32.440,75.6027
32.450,68.2281
32.460,76.2895
32.470,65.9379
32.480,78.6646
32.490,65.0799
32.500,67.9073
32.510,72.2730
32.520,76.6051
32.530,76.9346
32.540,69.5501
32.550,69.1487
32.560,68.0105
32.570,65.9602
32.580,71.6173
32.590,71.8374
32.600,66.2225
32.610,77.6656
32.620,73.6599
32.630,78.2891
32.640,67.6155
32.650,74.2261
32.660,70.4532
32.670,69.6979
32.680,68.6945
32.690,68.4918
32.700,68.0991
32.710,80.5713
32.720,69.2764
32.730,74.5452
32.740,77.3861
32.750,78.4150
32.760,79.6868
32.770,74.4435
32.780,71.4158
32.790,71.5875
32.800,72.0907
32.810,69.9813
32.820,82.1312
32.830,71.9615
32.840,71.8634
32.850,79.9460
32.860,79.7454
32.870,70.9545
32.880,82.3493
32.890,80.0072
32.900,74.0674
32.910,75.8309
32.920,84.1197
32.930,77.8233
32.940,85.3871
32.950,85.5358
32.960,79.1347
32.970,77.9928
32.980,78.9364
32.990,74.2293
33.000,79.7163
33.010,77.5791
33.020,81.2048
33.030,83.0426
33.040,76.6998
33.050,75.5113
33.060,85.1090
33.070,87.2223
33.080,83.9488
33.090,81.7940
33.100,82.7019
33.110,81.9537
33.120,80.5799
33.130,79.6081
33.140,85.7792
33.150,88.9789
33.160,86.7864
33.170,81.8763
33.180,77.0124
33.190,82.6283
33.200,79.5227
33.210,82.7742
33.220,81.2427
33.230,90.1075
33.240,78.1886
33.250,76.2579
33.260,86.5841
33.270,85.8078
33.280,85.8694
33.290,82.1056
33.300,77.3145
33.310,84.7573
33.320,84.5292
33.330,76.9238
33.340,87.5619
33.350,81.0830
33.360,76.6271
33.370,85.7773
33.380,76.2182
33.390,80.2223
33.400,78.7369
33.410,82.8231
33.420,77.2560
33.430,82.1765
33.440,85.6190
33.450,85.9330
33.460,75.5323
33.470,75.9565
33.480,76.8181
33.490,83.3121
33.500,77.0812
33.510,86.0952
33.520,74.3486
33.530,78.4317
33.540,79.5873
33.550,74.1697
33.560,75.1563
33.570,77.0329
33.580,72.6879
33.590,78.1968
33.600,77.7827
33.610,73.0391
33.620,81.0758
33.630,70.4645
33.640,75.1337
33.650,78.8336
33.660,69.8954
33.670,74.7700
33.680,78.3146
33.690,75.0582
33.700,70.0618
33.710,78.6494
33.720,75.3655
33.730,78.9259
33.740,72.4606
33.750,79.0464
33.760,73.7426
33.770,73.4243
33.780,72.8495
33.790,68.4299
33.800,79.5318
33.810,72.0736
33.820,77.0656
33.830,75.1670
33.840,69.9708
33.850,78.2675
33.860,71.8795
33.870,76.6468
33.880,75.4191
33.890,69.3783
33.900,67.7577
33.910,69.5727
33.920,65.5783
33.930,72.4011
33.940,74.8005
33.950,78.2860
33.960,74.5992
33.970,79.0998
33.980,77.5772
33.990,70.7467
34.000,66.1519
34.010,78.3821
34.020,69.1429
34.030,74.5588
34.040,68.2299
34.050,69.1345
34.060,77.2770
34.070,66.8706
34.080,68.9434
34.090,70.3993
34.100,69.3130
34.110,72.0950
34.120,69.1548
34.130,78.2457
34.140,74.7305
34.150,76.3255
34.160,68.7855
34.170,73.7215
34.180,70.9079
34.190,81.8718
34.200,75.5918
34.210,77.6180
34.220,75.1373
34.230,69.8254
34.240,78.3802
34.250,76.3114
34.260,78.7342
34.270,79.8156
34.280,81.4325
34.290,79.9114
34.300,81.3108
34.310,74.3211
34.320,84.4143
34.330,74.7927
34.340,84.4712
34.350,74.1503
34.360,82.2010
34.370,75.2102
34.380,79.6627
34.390,85.9760
34.400,79.6625
34.410,84.4845
34.420,86.9497
34.430,86.6470
34.440,75.4562
34.450,83.3804
34.460,75.5016
34.470,82.0246
34.480,79.3981
34.490,88.5844
34.500,86.9634
34.510,78.1906
34.520,78.1029
34.530,82.8886
34.540,81.7736
34.550,88.3139
34.560,84.0635
34.570,83.4384
34.580,84.4755
34.590,81.6271
34.600,76.7837
34.610,89.8880
34.620,77.9394
34.630,79.2877
34.640,80.3638
34.650,81.5402
34.660,85.1268
34.670,79.0813
34.680,85.8606
34.690,87.7688
34.700,76.6954
34.710,80.1161
34.720,84.5909
34.730,88.0935
34.740,79.4727
34.750,80.0561
34.760,82.8699
34.770,79.7830
34.780,85.3399
34.790,81.8047
34.800,86.3990
34.810,76.9818
34.820,84.0663
34.830,86.6998
34.840,84.3139
34.850,75.2561
34.860,74.4588
34.870,77.1018
34.880,79.5339
34.890,81.7233
34.900,79.9780
34.910,79.2112
34.920,77.0667
34.930,84.9426
34.940,74.2002
34.950,76.9365
34.960,85.1630
34.970,84.7103
34.980,80.4284
34.990,83.7042
35.000,73.6365
35.010,74.9042
35.020,74.5276
35.030,82.8306
35.040,72.0115
35.050,72.0887
35.060,76.5245
35.070,78.1602
35.080,76.7888
35.090,73.1497
35.100,70.7584
35.110,80.8298
35.120,71.2979
35.130,81.1105
35.140,72.3557
35.150,74.6254
35.160,72.4511
35.170,68.6253
35.180,72.1672
35.190,69.6312
35.200,76.8880
35.210,74.1235
35.220,75.6050
35.230,74.4973
35.240,69.3466
35.250,72.6920
35.260,73.0603
35.270,73.5525
35.280,76.4217
35.290,68.2988
35.300,75.5575
35.310,79.5624
35.320,74.2652
35.330,72.7369
35.340,67.3176
35.350,76.2972
35.360,73.2841
35.370,78.4879
35.380,74.9399
35.390,78.0678
35.400,78.0397
35.410,75.8021
35.420,66.1547
35.430,74.4586
35.440,66.6934
35.450,78.1016
35.460,79.2127
35.470,72.1294
35.480,76.9014
35.490,72.3573
35.500,69.4859
35.510,71.8936
35.520,69.3948
35.530,78.4720
35.540,80.7550
35.550,69.9736
35.560,76.8788
35.570,71.5998
35.580,68.4978
35.590,75.8217
35.600,69.5601
35.610,82.0240
35.620,82.1660
35.630,79.4830
35.640,75.4028
35.650,76.7839
35.660,74.8807
35.670,71.0280
35.680,72.4929
35.690,78.9316
35.700,76.9032
35.710,77.4411
35.720,77.6539
35.730,79.0431
35.740,73.3373
35.750,81.8694
35.760,83.4451
35.770,80.1615
35.780,79.5417
35.790,82.0418
35.800,74.1863
35.810,86.8153
35.820,79.2525
35.830,74.2587
35.840,85.3790
35.850,85.6558
35.860,80.2917
35.870,78.1482
35.880,83.5289
35.890,80.5204
35.900,80.0349
35.910,81.0345
35.920,83.1066
35.930,84.6295
35.940,84.0256
35.950,82.7706
35.960,88.5890
35.970,82.5791
35.980,80.5367
35.990,80.7569
36.000,86.8861
36.010,87.8234
36.020,79.4409
36.030,90.2233
36.040,78.5252
36.050,90.1039
36.060,83.8670
36.070,87.9281
36.080,86.9279
36.090,84.7372
36.100,80.6280
36.110,81.2397
36.120,83.5220
36.130,77.2087
36.140,78.0022
36.150,78.2145
36.160,76.9001
36.170,85.4481
36.180,82.2148
36.190,77.4686
36.200,78.6760
36.210,82.2744
36.220,88.8736
36.230,79.2504
36.240,86.0276
36.250,84.1924
36.260,85.3869
36.270,76.1633
36.280,83.4560
36.290,79.4727
36.300,82.5572
36.310,84.4590
36.320,82.4664
36.330,80.8831
36.340,75.5826
36.350,82.6603
36.360,79.1702
36.370,84.7718
36.380,82.8423
36.390,82.0580
36.400,73.2055
36.410,75.2137
36.420,73.2019
36.430,71.8279
36.440,83.0803
36.450,75.4447
36.460,73.7432
36.470,83.3645
36.480,77.6095
36.490,81.1078
36.500,71.3726
36.510,77.9668
36.520,81.6341
36.530,76.7989
36.540,78.3967
36.550,75.4902
36.560,81.4013
36.570,80.6234
36.580,80.2326
36.590,77.1548
36.600,73.4846
36.610,68.1885
36.620,78.7652
36.630,75.2830
36.640,79.6071
36.650,72.8759
36.660,70.2031
36.670,76.2948
36.680,70.3556
36.690,72.0696
36.700,71.1866
36.710,70.9048
36.720,71.2056
36.730,76.3451
36.740,73.7901
36.750,70.3357
36.760,67.2165
36.770,66.3609
36.780,73.0856
36.790,69.2081
36.800,77.6485
36.810,74.6300
36.820,69.2090
36.830,70.6247
36.840,73.9337
36.850,70.4758
36.860,71.8809
36.870,69.7334
36.880,74.2921
36.890,73.5809
36.900,78.8275
36.910,73.8296
36.920,66.9200
36.930,77.1725
36.940,74.7747
36.950,75.1566
36.960,71.3500
36.970,71.9526
36.980,78.7109
36.990,73.3473
37.000,77.4955
37.010,71.7435
37.020,82.5002
37.030,69.2251
37.040,81.2808
37.050,75.9052
37.060,82.4074
37.070,77.9591
37.080,73.1226
37.090,72.1868
37.100,82.9811
37.110,74.9897
37.120,73.8300
37.130,76.3652
37.140,74.0322
37.150,83.9402
37.160,85.2975
37.170,77.2981
37.180,82.2332
37.190,81.8109
37.200,80.0511
37.210,82.1301
37.220,79.1829
37.230,83.0603
37.240,77.2341
37.250,84.9818
37.260,84.4207
37.270,87.4202
37.280,78.2490
37.290,85.0417
37.300,85.9987
37.310,76.4145
37.320,86.4394
37.330,79.9847
37.340,85.8228
37.350,78.5118
37.360,89.2297
37.370,81.3633
37.380,88.8518
37.390,83.6281
37.400,87.5911
37.410,77.9163
37.420,77.3452
37.430,81.5061
37.440,77.8260
37.450,80.5303
37.460,82.7838
37.470,88.9196
37.480,89.2346
37.490,88.9101
37.500,88.6416
37.510,81.7449
37.520,89.8657
37.530,78.0489
37.540,79.9040
37.550,89.4165
37.560,77.1013
37.570,81.0304
37.580,79.1020
37.590,82.7867
37.600,82.8909
37.610,89.2978
37.620,77.6342
37.630,77.8366
37.640,83.5350
37.650,86.4036
37.660,80.0259
37.670,83.6953
37.680,87.3799
37.690,88.6115
37.700,85.5233
37.710,79.9206
37.720,79.3424
37.730,74.9414
37.740,87.8601
37.750,79.8594
37.760,86.1930
37.770,78.8096
37.780,84.8051
37.790,76.5819
37.800,84.9119
37.810,79.6954
37.820,80.7712
37.830,74.5257
37.840,77.1112
37.850,75.8885
37.860,84.5291
37.870,81.6719
37.880,77.3396
37.890,77.4950
37.900,79.9460
37.910,81.2927
37.920,70.5330
37.930,80.2324
37.940,70.4018
37.950,77.4831
37.960,79.5867
37.970,81.7982
37.980,70.3085
37.990,77.4311
38.000,77.9278
38.010,75.7982
38.020,79.8775
38.030,73.2529
38.040,79.4487
38.050,80.2501
38.060,78.4243
38.070,69.6346
38.080,68.7684
38.090,75.4640
38.100,72.7852
38.110,72.6362
38.120,68.3815
38.130,74.1505
38.140,79.7562
38.150,73.3178
38.160,68.5410
38.170,76.3424
38.180,79.5835
38.190,70.2313
38.200,67.2447
38.210,71.0676
38.220,69.6220
38.230,76.2596
38.240,74.2577
38.250,69.0450
38.260,68.0262
38.270,78.6501
38.280,71.2705
38.290,73.0070
38.300,67.6358
38.310,69.0058
38.320,74.6687
38.330,78.1963
38.340,75.4564
38.350,77.5282
38.360,76.0223
38.370,72.0914
38.380,79.3621
38.390,78.7783
38.400,79.9547
38.410,79.7356
38.420,73.8328
38.430,76.4939
38.440,71.3758
38.450,76.7171
38.460,74.5511
38.470,81.3634
38.480,79.3756
38.490,80.2776
38.500,79.8048
38.510,73.9148
38.520,71.7599
38.530,74.3908
38.540,80.5748
38.550,80.2065
38.560,80.2320
38.570,83.7958
38.580,74.3197
38.590,84.9703
38.600,73.2042
38.610,79.4790
38.620,82.6817
38.630,86.4610
38.640,84.7088
38.650,85.3768
38.660,78.4966
38.670,81.6352
38.680,85.6151
38.690,81.5697
38.700,81.4459
38.710,82.4663
38.720,76.9170
38.730,81.4200
38.740,80.3289
38.750,89.5471
38.760,79.2725
38.770,89.1420
38.780,86.5228
38.790,83.5693
38.800,89.8803
38.810,82.0277
38.820,79.0438
38.830,88.4448
38.840,89.9800
38.850,80.7040
38.860,81.6470
38.870,88.3886
38.880,84.1946
38.890,85.8625
38.900,89.1236
38.910,86.3607
38.920,89.9200
38.930,89.8096
38.940,83.2699
38.950,77.7825
38.960,78.6078
38.970,78.7852
38.980,90.8652
38.990,85.3962
39.000,83.0466
39.010,78.3459
39.020,88.7917
39.030,81.3691
39.040,85.1480
39.050,84.2547
39.060,78.9189
39.070,79.2840
39.080,88.4801
39.090,87.9910
39.100,81.9818
39.110,83.3177
39.120,83.1998
39.130,80.7223
39.140,79.9289
39.150,84.8912
39.160,77.3780
39.170,85.6787
39.180,88.1700
39.190,84.2860
39.200,83.9863
39.210,83.0921
39.220,83.4553
39.230,81.1303
39.240,74.2081
39.250,83.3908
39.260,85.9824
39.270,81.6861
39.280,84.3387
39.290,76.4687
39.300,81.6420
39.310,74.4006
39.320,83.0516
39.330,80.4223
39.340,73.9796
39.350,78.8536
39.360,84.2089
39.370,81.8376
39.380,78.6830
39.390,75.5561
39.400,82.1143
39.410,72.0034
39.420,79.3555
39.430,73.3675
39.440,70.8046
39.450,77.1844
39.460,80.2230
39.470,68.4987
39.480,69.2772
39.490,75.6652
39.500,68.0510
39.510,70.9463
39.520,72.1029
39.530,68.5739
39.540,69.4369
39.550,74.7638
39.560,67.2029
39.570,70.1667
39.580,75.1358
39.590,67.4225
39.600,67.1292
39.610,74.4111
39.620,74.5696
39.630,71.5403
39.640,80.1325
39.650,73.7550
39.660,79.6522
39.670,80.4207
39.680,78.4915
39.690,77.5837
39.700,71.3646
39.710,70.7067
39.720,76.5925
39.730,70.1294
39.740,79.9691
39.750,75.8224
39.760,80.4390
39.770,69.2207
39.780,70.2053
39.790,69.4153
39.800,78.7131
39.810,76.5115
39.820,80.7042
39.830,78.2665
39.840,78.4165
39.850,81.1711
39.860,69.6978
39.870,72.8489
39.880,71.3230
39.890,70.1049
39.900,72.3172
39.910,80.2760
39.920,76.8023
39.930,84.2351
39.940,82.3732
39.950,77.4257
39.960,72.7291
39.970,78.0440
39.980,78.5282
39.990,74.1314
40.000,74.3458
40.010,72.5425
40.020,81.5636
40.030,86.4194
40.040,74.4199
40.050,81.6365
40.060,84.9222
40.070,84.7138
40.080,75.0850
40.090,78.9106
40.100,77.1538
40.110,85.5880
40.120,86.4261
40.130,76.8867
40.140,77.8167
40.150,88.4439
40.160,87.0927
40.170,84.5503
40.180,86.0586
40.190,85.0637
40.200,83.2852
40.210,88.5964
40.220,85.5978
40.230,84.6557
40.240,79.9527
40.250,86.5882
40.260,79.4995
40.270,82.3315
40.280,84.0749
40.290,81.0333
40.300,87.2298
40.310,81.3263
40.320,82.4463
40.330,81.1791
40.340,81.4449
40.350,88.3752
40.360,78.2058
40.370,86.4964
40.380,88.5416
40.390,84.9714
40.400,90.6470
40.410,85.5574
40.420,80.1006
40.430,81.3062
40.440,90.5921
40.450,86.9482
40.460,85.4115
40.470,79.1765
40.480,90.9312
40.490,79.1208
40.500,89.8361
40.510,81.9971
40.520,77.9487
40.530,76.7351
40.540,78.1463
40.550,84.9403
40.560,84.1435
40.570,84.4774
40.580,88.7702
40.590,86.5955
40.600,88.6021
40.610,78.4601
40.620,85.6409
40.630,82.6994
40.640,85.4159
40.650,75.0948
40.660,86.7202
40.670,83.8402
40.680,75.7534
40.690,81.5733
40.700,82.3446
40.710,73.7901
40.720,77.8909
40.730,75.6448
40.740,75.3073
40.750,84.3349
40.760,71.7972
40.770,81.7069
40.780,71.6086
40.790,76.6194
40.800,81.1371
40.810,83.7081
40.820,76.1118
40.830,72.1979
40.840,81.6965
40.850,77.8246
40.860,71.9236
40.870,69.2891
40.880,77.4430
40.890,76.2821
40.900,76.0792
40.910,75.6002
40.920,80.5057
40.930,68.9998
40.940,79.1618
40.950,80.8276
40.960,69.9546
40.970,80.2191
40.980,74.4580
40.990,80.8919
41.000,77.8946
41.010,70.9460
41.020,79.4805
41.030,70.1623
41.040,76.0606
41.050,75.3185
41.060,71.2909
41.070,75.8383
41.080,67.1092
41.090,75.1187
41.100,73.3145
41.110,68.9901
41.120,72.7351
41.130,74.3315
41.140,78.6741
41.150,68.2199
41.160,73.4257
41.170,74.1627
41.180,69.4167
41.190,80.9817
41.200,69.7042
41.210,78.6227
41.220,81.2141
41.230,74.1749
41.240,80.8542
41.250,71.4158
41.260,74.8855
41.270,80.0141
41.280,81.9630
41.290,78.3594
41.300,75.7692
41.310,77.6121
41.320,83.8205
41.330,83.3293
41.340,82.9810
41.350,70.9827
41.360,78.1314
41.370,75.9716
41.380,72.1760
41.390,82.8302
41.400,78.4566
41.410,80.0811
41.420,80.4502
41.430,84.8109
41.440,80.5130
41.450,80.7829
41.460,82.3518
41.470,87.5003
41.480,74.0361
41.490,76.7410
41.500,82.3048
41.510,76.6107
41.520,82.1272
41.530,78.3676
41.540,77.2909
41.550,76.1421
41.560,88.8719
41.570,86.8478
41.580,85.6112
41.590,78.3328
41.600,82.5591
41.610,77.9034
41.620,81.9963
41.630,81.9953
41.640,81.5301
41.650,91.1311
41.660,77.5166
41.670,77.5316
41.680,80.3160
41.690,87.6663
41.700,90.0025
41.710,86.1952
41.720,89.2446
41.730,86.2623
41.740,89.0545
41.750,80.1876
41.760,78.6137
41.770,83.1043
41.780,85.7648
41.790,81.2171
41.800,79.7638
41.810,78.3760
41.820,85.3917
41.830,84.1880
41.840,79.8495
41.850,88.0542
41.860,84.3404
41.870,82.5311
41.880,88.3436
41.890,82.8522
41.900,85.5087
41.910,79.6445
41.920,90.4151
41.930,83.8547
41.940,86.6150
41.950,78.1630
41.960,78.4278
41.970,84.7369
41.980,84.4749
41.990,80.3831
42.000,86.2872
42.010,83.9891
42.020,88.8303
42.030,79.5637
42.040,79.6668
42.050,82.8898
42.060,87.5140
42.070,82.8312
42.080,76.5168
42.090,82.1240
42.100,79.9358
42.110,82.2424
42.120,74.7008
42.130,83.4184
42.140,84.8249
42.150,76.5486
42.160,78.6372
42.170,80.3842
42.180,79.9642
42.190,82.2843
42.200,84.6451
42.210,79.2959
42.220,83.5779
42.230,80.9141
42.240,84.0239
42.250,79.0995
42.260,74.3541
42.270,81.9691
42.280,71.7035
42.290,70.0618
42.300,75.3290
42.310,77.5420
42.320,73.3542
42.330,73.6636
42.340,81.1802
42.350,76.9291
42.360,68.8475
42.370,68.9590
42.380,80.5735
42.390,74.2567
42.400,80.0391
42.410,75.5115
42.420,74.3601
42.430,70.2090
42.440,76.5442
42.450,79.1407
42.460,71.8789
42.470,68.5887
42.480,77.9704
42.490,80.8854
42.500,76.4657
42.510,78.6033
42.520,68.6000
42.530,67.8472
42.540,73.4536
42.550,76.5909
42.560,79.0232
42.570,72.0416
42.580,78.7207
42.590,69.7315
42.600,68.2435
42.610,73.3363
42.620,80.0916
42.630,70.6700
42.640,80.2548
42.650,81.9874
42.660,77.8030
42.670,74.6005
42.680,70.1180
42.690,74.3172
42.700,79.0265
42.710,82.3358
42.720,75.1702
42.730,79.8983
42.740,78.8244
42.750,71.1895
42.760,78.0176
42.770,84.1541
42.780,74.5058
42.790,73.1302
42.800,84.0563
42.810,78.4332
42.820,72.7936
42.830,74.8075
42.840,79.4882
42.850,77.2653
42.860,86.3166
42.870,85.3499
42.880,86.6218
42.890,81.6895
42.900,85.8219
42.910,85.8442
42.920,78.5829
42.930,77.9804
42.940,77.7703
42.950,86.2848
42.960,79.1591
42.970,88.7104
42.980,87.2477
42.990,87.8798
43.000,82.7298
43.010,86.5908
43.020,88.8258
43.030,85.3319
43.040,89.1022
43.050,89.5746
43.060,83.4545
43.070,88.7064
43.080,90.1609
43.090,86.4105
43.100,83.5614
43.110,88.9124
43.120,86.1153
43.130,80.8528
43.140,86.0388
43.150,78.7349
43.160,81.4504
43.170,90.0390
43.180,79.4021
43.190,81.7564
43.200,81.2112
43.210,86.2477
43.220,80.4478
43.230,89.9284
43.240,78.9657
43.250,87.2928
43.260,85.0342
43.270,90.8300
43.280,88.1287
43.290,78.4559
43.300,85.1386
43.310,80.4000
43.320,79.8675
43.330,83.0864
43.340,80.2239
43.350,90.3753
43.360,85.8482
43.370,87.6361
43.380,81.2813
43.390,85.4436
43.400,88.0256
43.410,90.4995
43.420,80.4200
43.430,82.7407
43.440,76.6679
43.450,84.5277
43.460,77.5433
43.470,77.4685
43.480,75.7190
43.490,75.6156
43.500,87.0527
43.510,76.2989
43.520,81.4367
43.530,74.6499
43.540,77.4500
43.550,86.8291
43.560,75.3047
43.570,77.8117
43.580,79.7719
43.590,84.3314
43.600,82.0683
43.610,75.0735
43.620,74.3916
43.630,75.0358
43.640,71.4735
43.650,72.5044
43.660,80.1175
43.670,71.8761
43.680,80.5316
43.690,77.8257
43.700,72.3974
43.710,73.3118
43.720,78.4775
43.730,81.2827
43.740,75.5027
43.750,76.9801
43.760,79.1181
43.770,75.1648
43.780,68.9667
43.790,72.0804
43.800,81.2177
43.810,70.1415
43.820,71.6899
43.830,68.9841
43.840,68.2997
43.850,71.1525
43.860,77.9243
43.870,72.7568
43.880,81.1022
43.890,68.7409
43.900,81.2418
43.910,67.6745
43.920,74.9361
43.930,72.0663
43.940,78.7531
43.950,76.8004
43.960,67.8821
43.970,73.6008
43.980,77.1690
43.990,78.4839
44.000,72.7128
44.010,76.8094
44.020,75.0082
44.030,80.0023
44.040,73.0404
44.050,71.8847
44.060,82.4255
44.070,76.1190
44.080,77.9183
44.090,70.1435
44.100,76.6921
44.110,76.8326
44.120,77.0211
44.130,73.9632
44.140,82.1821
44.150,73.8766
44.160,73.7879
44.170,76.3813
44.180,81.6289
44.190,76.4362
44.200,79.2706
44.210,78.1873
44.220,76.4680
44.230,82.6662
44.240,79.7788
44.250,85.7731
44.260,74.1966
44.270,77.8963
44.280,81.4478
44.290,86.6507
44.300,86.6106
44.310,85.8758
44.320,82.4019
44.330,86.3618
44.340,75.3761
44.350,83.5949
44.360,86.0446
44.370,77.7322
44.380,83.1010
44.390,77.3951
44.400,86.3338
44.410,80.2691
44.420,88.3166
44.430,86.2584
44.440,90.1942
44.450,81.2982
44.460,88.0061
44.470,86.6677
44.480,80.1582
44.490,87.4683
44.500,85.6604
44.510,84.6637
44.520,88.5027
44.530,90.1763
44.540,89.5472
44.550,86.7696
44.560,80.9462
44.570,81.3245
44.580,92.3229
44.590,81.7045
44.600,92.3334
44.610,79.4978
44.620,85.0645
44.630,85.6816
44.640,87.4938
44.650,92.7336
44.660,85.3727
44.670,87.9500
44.680,90.2992
44.690,79.6187
44.700,81.3084
44.710,82.9464
44.720,86.9357
44.730,84.7961
44.740,91.5217
44.750,79.7599
44.760,81.0801
44.770,84.5256
44.780,91.9043
44.790,79.7050
44.800,83.3871
44.810,87.1894
44.820,90.1698
44.830,88.3722
44.840,82.9692
44.850,84.4036
44.860,77.0895
44.870,89.6021
44.880,78.5748
44.890,84.8391
44.900,87.0559
44.910,80.0157
44.920,85.2978
44.930,75.1589
44.940,84.8001
44.950,85.1458
44.960,85.3300
44.970,87.4711
44.980,78.2989
44.990,86.0004
45.000,77.6619
45.010,83.7012
45.020,76.7003
45.030,77.2698
45.040,88.3506
45.050,86.8739
45.060,86.6805
45.070,94.2482
45.080,89.3534
45.090,92.8635
45.100,98.9286
45.110,91.6200
45.120,99.0851
45.130,102.3465
45.140,96.5375
45.150,102.9404
45.160,96.4224
45.170,105.2959
45.180,105.7116
45.190,98.1784
45.200,101.4183
45.210,112.2429
45.220,101.7685
45.230,111.8843
45.240,102.7141
45.250,113.4940
45.260,110.8718
45.270,110.2358
45.280,112.3996
45.290,114.9172
45.300,119.4460
45.310,112.8356
45.320,117.0837
45.330,116.0165
45.340,122.1458
45.350,125.0686
45.360,120.2839
45.370,126.7153
45.380,129.2769
45.390,133.5873
45.400,123.5736
45.410,133.3150
45.420,135.1446
45.430,131.9322
45.440,135.1618
45.450,138.7390
45.460,134.7403
45.470,142.9375
45.480,136.7480
45.490,133.3398
45.500,147.9064
45.510,142.9729
45.520,146.2058
45.530,144.0387
45.540,144.1444
45.550,149.6417
45.560,154.2557
45.570,152.3701
45.580,155.7848
45.590,148.1971
45.600,155.6086
45.610,147.5960
45.620,158.3021
45.630,151.1109
45.640,154.7324
45.650,157.2895
45.660,156.2794
45.670,159.9648
45.680,155.8921
45.690,162.2844
45.700,170.9390
45.710,171.3129
45.720,169.1574
45.730,169.3539
45.740,166.5146
45.750,165.0244
45.760,169.1342
45.770,168.7386
45.780,179.2053
45.790,182.8031
45.800,171.3145
45.810,181.9411
45.820,185.1303
45.830,174.2248
45.840,181.2555
45.850,180.7706
45.860,181.7389
45.870,182.8623
45.880,180.9809
45.890,181.5440
45.900,196.0259
45.910,184.6904
45.920,195.8664
45.930,194.7357
45.940,198.3041
45.950,190.1460
45.960,203.4595
45.970,191.9981
45.980,196.5744
45.990,203.8045
46.000,200.1002
46.010,207.4260
46.020,200.2547
46.030,196.8239
46.040,203.6657
46.050,199.4970
46.060,205.5078
46.070,196.2544
46.080,207.6150
46.090,204.3527
46.100,195.6211
46.110,207.8570
46.120,198.6303
46.130,206.5164
46.140,198.6144
46.150,195.4353
46.160,200.2716
46.170,200.1542
46.180,203.9712
46.190,199.3059
46.200,208.4169
46.210,197.0329
46.220,204.9448
46.230,197.2716
46.240,198.9266
46.250,198.5250
46.260,195.9888
46.270,195.7492
46.280,203.6087
46.290,206.8024
46.300,201.1604
46.310,207.2700
46.320,203.4186
46.330,206.9678
46.340,205.4796
46.350,201.8090
46.360,198.2780
46.370,204.2571
46.380,207.0094
46.390,206.7469
46.400,201.5292
46.410,196.6660
46.420,200.1256
46.430,208.6848
46.440,206.2367
46.450,206.8824
46.460,195.8606
46.470,195.9560
46.480,205.3510
46.490,207.5083
46.500,200.3827
46.510,206.9046
46.520,205.1079
46.530,206.5708
46.540,205.4644
46.550,196.4737
46.560,204.8692
46.570,195.6991
46.580,196.0197
46.590,197.8706
46.600,203.6383
46.610,198.5826
46.620,208.0091
46.630,197.5364
46.640,208.6073
46.650,206.1162
46.660,207.2717
46.670,198.3866
46.680,201.1913
46.690,198.6107
46.700,200.9713
46.710,201.8818
46.720,195.6660
46.730,197.9930
46.740,198.3171
46.750,196.8808
46.760,204.6464
46.770,206.2165
46.780,203.7806
46.790,202.1618
46.800,201.2871
46.810,198.7860
46.820,200.3337
46.830,207.1124
46.840,202.1033
46.850,201.9374
46.860,198.0830
46.870,208.0051
46.880,197.7316
46.890,205.7705
46.900,208.2995
46.910,202.0788
46.920,198.2618
46.930,207.2820
46.940,206.7275
46.950,198.7976
46.960,195.2996
46.970,197.9385
46.980,200.0903
46.990,201.8387
47.000,81.1382
47.010,71.1030
47.020,71.3951
47.030,78.3557
47.040,82.1285
47.050,83.4398
47.060,80.0100
47.070,83.5626
47.080,74.6156
47.090,75.4340
47.100,79.9885
47.110,78.1188
47.120,84.3655
47.130,83.7047
47.140,86.8979
47.150,86.6969
47.160,76.8245
47.170,82.2689
47.180,78.1729
47.190,81.5051
47.200,81.8240
47.210,84.0472
47.220,88.2369
47.230,82.3581
47.240,80.8345
47.250,79.9085
47.260,79.0096
47.270,89.5558
47.280,86.4104
47.290,84.3588
47.300,85.4361
47.310,81.2785
47.320,86.8996
47.330,81.7629
47.340,78.6657
47.350,86.8785
47.360,86.3682
47.370,84.4258
47.380,88.6328
47.390,82.1317
47.400,86.5568
47.410,87.3187
47.420,92.0213
47.430,82.7778
47.440,87.0295
47.450,92.4776
47.460,82.6097
47.470,80.2301
47.480,82.5714
47.490,80.5549
47.500,89.4688
47.510,83.7899
47.520,82.9602
47.530,93.3446
47.540,87.6341
47.550,80.5900
47.560,86.3251
47.570,86.8604
47.580,80.3106
47.590,89.9996
47.600,82.7781
47.610,81.6951
47.620,89.0877
47.630,88.8873
47.640,85.4483
47.650,79.2342
47.660,84.7176
47.670,91.0337
47.680,85.2501
47.690,82.9215
47.700,85.3024
47.710,78.4466
47.720,78.2482
47.730,88.9445
47.740,78.3847
47.750,77.8399
47.760,77.2424
47.770,78.2448
47.780,83.4258
47.790,87.7384
47.800,78.3757
47.810,84.0725
47.820,87.2589
47.830,84.8698
47.840,78.2288
47.850,79.5652
47.860,83.4520
47.870,76.1937
47.880,87.3279
47.890,82.3674
47.900,82.5667
47.910,75.9917
47.920,81.5297
47.930,75.4244
47.940,79.7621
47.950,73.0976
47.960,72.9466
47.970,80.1398
47.980,81.5608
47.990,81.7339
48.000,76.0991
48.010,73.9778
48.020,73.6882
48.030,83.4986
48.040,78.7401
48.050,70.9238
48.060,72.5009
48.070,83.5803
48.080,83.4234
48.090,69.7339
48.100,79.4959
48.110,71.8714
48.120,72.6776
48.130,82.8561
48.140,82.7855
48.150,69.7221
48.160,73.0776
48.170,76.2174
48.180,80.8280
48.190,81.6685
48.200,73.8617
48.210,82.1618
48.220,70.3613
48.230,79.5911
48.240,82.3356
48.250,77.6606
48.260,82.5703
48.270,75.7625
48.280,71.2950
48.290,71.6896
48.300,71.2943
48.310,79.7990
48.320,72.9624
48.330,75.6174
48.340,71.1935
48.350,75.9858
48.360,76.8860
48.370,72.8003
48.380,74.1938
48.390,80.6784
48.400,80.1489
48.410,75.8066
48.420,77.3023
48.430,81.1576
48.440,72.4806
48.450,81.7199
48.460,77.7290
48.470,76.3684
48.480,77.6485
48.490,84.8426
48.500,73.2216
48.510,75.8939
48.520,76.0137
48.530,76.9154
48.540,78.7385
48.550,87.2717
48.560,81.1503
48.570,87.0652
48.580,83.0122
48.590,76.5707
48.600,81.8459
48.610,76.9228
48.620,87.8789
48.630,87.0777
48.640,82.7109
48.650,80.9799
48.660,89.1634
48.670,78.1166
48.680,78.9586
48.690,82.7600
48.700,80.7138
48.710,91.2430
48.720,78.1995
48.730,89.2846
48.740,90.4944
48.750,79.1053
48.760,90.7962
48.770,82.0743
48.780,91.3574
48.790,86.8608
48.800,83.8391
48.810,88.4915
48.820,83.7649
48.830,86.7942
48.840,87.0808
48.850,89.9302
48.860,90.9456
48.870,81.2393
48.880,84.6859
48.890,93.2462
48.900,87.5977
48.910,91.4175
48.920,86.4929
48.930,89.8722
48.940,86.0139
48.950,86.7410
48.960,85.7884
48.970,92.6760
48.980,92.3735
48.990,80.8209
49.000,91.5163
49.010,92.1160
49.020,93.2517
49.030,91.7744
49.040,82.8566
49.050,89.0353
49.060,92.3590
49.070,84.8876
49.080,88.8689
49.090,88.7107
49.100,84.7905
49.110,78.6392
49.120,87.8565
49.130,89.8667
49.140,87.8754
49.150,88.6974
49.160,85.6136
49.170,85.4184
49.180,84.7399
49.190,81.2687
49.200,82.6030
49.210,77.4716
49.220,77.2107
49.230,82.8946
49.240,82.7586
49.250,87.2079
49.260,79.1803
49.270,82.4263
49.280,88.3308
49.290,80.4141
49.300,86.1710
49.310,81.4152
49.320,82.2937
49.330,78.6251
49.340,79.5647
49.350,74.2481
49.360,83.6158
49.370,82.2100
49.380,75.0762
49.390,74.7350
49.400,75.3859
49.410,72.7469
49.420,76.1141
49.430,75.8864
49.440,78.7914
49.450,76.7324
49.460,73.2803
49.470,83.7643
49.480,78.8419
49.490,80.2722
49.500,79.0207
49.510,71.8800
49.520,74.1674
49.530,74.7655
49.540,80.6327
49.550,80.1116
49.560,71.9014
49.570,77.5933
49.580,71.4683
49.590,74.0376
49.600,72.9521
49.610,72.5331
49.620,75.8178
49.630,69.6551
49.640,78.7858
49.650,76.8871
49.660,81.8184
49.670,81.3618
49.680,78.8184
49.690,74.2968
49.700,75.8125
49.710,76.9819
49.720,80.4221
49.730,83.3428
49.740,82.2737
49.750,77.4364
49.760,76.7542
49.770,75.4147
49.780,77.8069
49.790,77.8015
49.800,81.6774
49.810,76.7420
49.820,72.9972
49.830,76.3314
49.840,71.5844
49.850,74.2381
49.860,71.6337
49.870,76.8393
49.880,72.2227
49.890,85.5486
49.900,73.2458
49.910,82.1408
49.920,85.5554
49.930,86.2926
49.940,82.9326
49.950,87.1395
49.960,77.8462
49.970,87.3875
49.980,83.3762
49.990,86.5407
50.000,88.1576
50.010,76.3641
50.020,86.4081
50.030,80.7471
50.040,80.2047
50.050,77.5911
50.060,77.7467
50.070,79.2610
50.080,78.7894
50.090,82.5539
50.100,82.8070
50.110,90.9589
50.120,80.7950
50.130,81.0347
50.140,80.5099
50.150,79.4984
50.160,86.1194
50.170,85.4130
50.180,81.3605
50.190,90.3597
50.200,81.7479
50.210,81.8939
50.220,80.5577
50.230,79.8613
50.240,88.7999
50.250,79.8259
50.260,83.8533
50.270,92.0761
50.280,92.3977
50.290,90.4433
50.300,81.3041
50.310,86.3781
50.320,90.5227
50.330,86.1301
50.340,86.6000
50.350,92.9103
50.360,91.0669
50.370,81.2042
50.380,88.0628
50.390,84.2825
50.400,92.4513
50.410,83.5885
50.420,81.9783
50.430,86.5623
50.440,81.4227
50.450,93.6229
50.460,85.4839
50.470,89.7409
50.480,84.9803
50.490,91.5605
50.500,80.4831
50.510,80.5510
50.520,90.6509
50.530,90.5894
50.540,88.2504
50.550,85.5432
50.560,86.1207
50.570,83.5290
50.580,80.9598
50.590,90.1461
50.600,88.8997
50.610,83.1832
50.620,85.2941
50.630,88.2297
50.640,86.2302
50.650,79.1152
50.660,82.1293
50.670,76.1585
50.680,88.5253
50.690,80.5683
50.700,77.9457
50.710,78.8558
50.720,87.7946
50.730,83.5829
50.740,80.2307
50.750,83.6952
50.760,85.2184
50.770,87.3183
50.780,77.9076
50.790,80.6163
50.800,76.6844
50.810,84.7984
50.820,73.0489
50.830,81.3593
50.840,74.8589
50.850,84.6776
50.860,74.1291
50.870,81.3102
50.880,83.9531
50.890,71.3012
50.900,77.9787
50.910,72.0789
50.920,79.7931
50.930,70.6436
50.940,79.1435
50.950,71.0283
50.960,77.8024
50.970,80.2055
50.980,79.7477
50.990,82.4920
51.000,72.8513
51.010,72.7682
51.020,73.5938
51.030,79.6662
51.040,73.5700
51.050,81.8062
51.060,77.7413
51.070,71.5595
51.080,81.7316
51.090,75.5035
51.100,75.7120
51.110,75.4014
51.120,70.5708
51.130,71.7288
51.140,75.8563
51.150,76.6326
51.160,70.3610
51.170,75.5842
51.180,71.1357
51.190,82.6239
51.200,82.0677
51.210,74.8485
51.220,81.3909
51.230,79.1514
51.240,80.8053
51.250,79.6961
51.260,74.1894
51.270,77.0800
51.280,79.2239
51.290,76.1475
51.300,80.8924
51.310,83.6473
51.320,82.1771
51.330,73.3064
51.340,75.7722
51.350,79.2867
51.360,86.3873
51.370,83.8397
51.380,83.9703
51.390,77.6180
51.400,87.8718
51.410,86.7818
51.420,85.1805
51.430,88.0844
51.440,87.8120
51.450,79.3534
51.460,82.7373
51.470,85.5957
51.480,77.4511
51.490,84.9438
51.500,89.6120
51.510,77.4247
51.520,91.0383
51.530,87.8302
51.540,85.3952
51.550,79.2433
51.560,79.6421
51.570,92.1541
51.580,87.5802
51.590,89.0250
51.600,90.0340
51.610,80.6657
51.620,86.2489
51.630,87.4153
51.640,89.5088
51.650,90.8319
51.660,83.1766
51.670,84.4578
51.680,83.4899
51.690,88.2367
51.700,83.2657
51.710,81.7943
51.720,81.8872
51.730,93.8587
51.740,83.8036
51.750,82.2301
51.760,92.8399
51.770,93.5958
51.780,86.0870
51.790,89.9842
51.800,81.3247
51.810,93.3553
51.820,87.0936
51.830,81.0930
51.840,80.5552
51.850,87.8786
51.860,94.2340
51.870,81.4160
51.880,86.7759
51.890,93.1745
51.900,84.4556
51.910,87.3720
51.920,82.0629
51.930,83.2720
51.940,93.1142
51.950,91.7005
51.960,85.6873
51.970,88.8157
51.980,80.7490
51.990,91.4180
52.000,83.5981
52.010,84.3719
52.020,90.6506
52.030,87.3150
52.040,83.7718
52.050,79.2266
52.060,78.1545
52.070,80.8821
52.080,77.2531
52.090,85.3854
52.100,80.4443
52.110,88.8430
52.120,83.7899
52.130,81.1291
52.140,79.1845
52.150,81.2200
52.160,84.3734
52.170,75.0447
52.180,77.4883
52.190,77.2694
52.200,80.5486
52.210,87.2433
52.220,73.4365
52.230,73.2801
52.240,78.1257
52.250,79.8768
52.260,81.7909
52.270,82.0217
52.280,72.4991
52.290,76.1814
52.300,82.1592
52.310,79.4466
52.320,78.4369
52.330,76.1153
52.340,81.5169
52.350,80.4720
52.360,71.8683
52.370,72.8212
52.380,71.2148
52.390,84.1947
52.400,80.6423
52.410,82.8644
52.420,71.0542
52.430,74.4094
52.440,75.5327
52.450,72.1871
52.460,78.9659
52.470,82.3881
52.480,75.1725
52.490,77.3347
52.500,74.1802
52.510,77.6465
52.520,72.4561
52.530,82.8262
52.540,76.8029
52.550,81.2995
52.560,83.5553
52.570,73.6011
52.580,81.4344
52.590,73.7091
52.600,82.6003
52.610,82.2879
52.620,81.4596
52.630,72.8922
52.640,73.9339
52.650,79.7074
52.660,79.7236
52.670,76.6977
52.680,84.4690
52.690,72.1228
52.700,84.5653
52.710,77.1725
52.720,74.2414
52.730,79.1022
52.740,73.5152
52.750,83.0103
52.760,78.8601
52.770,74.5222
52.780,87.2478
52.790,76.6887
52.800,85.0348
52.810,85.5274
52.820,86.4790
52.830,74.6992
52.840,86.5248
52.850,77.0793
52.860,78.4293
52.870,82.8504
52.880,76.7628
52.890,78.0074
52.900,84.6108
52.910,90.3477
52.920,86.4691
52.930,77.2808
52.940,87.7245
52.950,81.5799
52.960,84.2389
52.970,84.8167
52.980,79.0795
52.990,81.0714
53.000,90.2382
53.010,86.0815
53.020,89.9221
53.030,92.8368
53.040,92.8429
53.050,82.0683
53.060,91.5174
53.070,82.5607
53.080,87.8829
53.090,88.1779
53.100,83.7665
53.110,91.5644
53.120,82.7727
53.130,89.7400
53.140,89.8863
53.150,82.6734
53.160,83.5741
53.170,82.5145
53.180,86.0560
53.190,82.3991
53.200,88.5163
53.210,89.6182
53.220,86.0472
53.230,85.8255
53.240,90.3061
53.250,86.0743
53.260,84.8314
53.270,81.5909
53.280,81.2135
53.290,84.5992
53.300,80.8249
53.310,83.1903
53.320,86.7815
53.330,87.1365
53.340,81.9568
53.350,93.5082
53.360,87.1991
53.370,90.4917
53.380,86.1735
53.390,81.0931
53.400,85.2302
53.410,84.0616
53.420,92.8180
53.430,88.8082
53.440,91.1496
53.450,81.4196
53.460,88.7198
53.470,79.5497
53.480,80.4157
53.490,80.5175
53.500,81.8296
53.510,84.8197
53.520,89.9783
53.530,81.6449
53.540,83.3662
53.550,81.9136
53.560,78.5741
53.570,81.8371
53.580,81.7359
53.590,88.5153
53.600,83.5951
53.610,83.0481
53.620,77.1385
53.630,85.2286
53.640,75.4783
53.650,74.2038
53.660,77.1374
53.670,73.7189
53.680,75.3678
53.690,80.3619
53.700,82.8152
53.710,78.5400
53.720,79.5056
53.730,84.8031
53.740,82.4519
53.750,82.0603
53.760,82.7604
53.770,82.7217
53.780,81.3051
53.790,75.8300
53.800,80.5780
53.810,81.5327
53.820,84.0386
53.830,72.8828
53.840,74.3930
53.850,78.3585
53.860,71.0721
53.870,81.5970
53.880,82.6803
53.890,80.6629
53.900,83.1374
53.910,77.1634
53.920,77.0777
53.930,74.1492
53.940,82.1437
53.950,83.8519
53.960,77.7605
53.970,70.7970
53.980,70.3059
53.990,72.1142
54.000,78.4753
54.010,74.2399
54.020,73.2118
54.030,83.1615
54.040,73.1547
54.050,74.8667
54.060,78.4397
54.070,82.9677
54.080,72.1747
54.090,79.7980
54.100,80.4135
54.110,73.0014
54.120,74.7376
54.130,85.6865
54.140,72.4133
54.150,83.4649
54.160,75.3817
54.170,77.8768
54.180,81.8886
54.190,85.9213
54.200,75.2094
54.210,80.7640
54.220,84.9679
54.230,84.7366
54.240,80.3645
54.250,79.9587
54.260,76.1730
54.270,86.8517
54.280,78.4419
54.290,80.0874
54.300,79.8583
54.310,88.8245
54.320,84.7970
54.330,86.8245
54.340,80.7617
54.350,79.3094
54.360,87.0301
54.370,85.1992
54.380,89.3551
54.390,86.8733
54.400,85.4543
54.410,85.4937
54.420,87.0476
54.430,92.3806
54.440,86.6502
54.450,85.8903
54.460,79.8626
54.470,90.2737
54.480,85.2148
54.490,80.1094
54.500,81.1320
54.510,87.8234
54.520,93.3471
54.530,90.3805
54.540,89.7104
54.550,93.4443
54.560,86.7154
54.570,90.8356
54.580,81.9884
54.590,92.1512
54.600,87.7873
54.610,95.0301
54.620,92.9679
54.630,91.7375
54.640,90.6902
54.650,82.7798
54.660,92.2857
54.670,90.5050
54.680,94.6824
54.690,83.0275
54.700,94.2422
54.710,85.5802
54.720,81.7459
54.730,90.7268
54.740,86.5827
54.750,86.3908
54.760,83.6307
54.770,87.5348
54.780,84.1459
54.790,89.3579
54.800,91.3185
54.810,83.9830
54.820,88.9736
54.830,82.6832
54.840,91.1817
54.850,82.1441
54.860,84.8021
54.870,90.0058
54.880,90.8387
54.890,90.5365
54.900,81.9123
54.910,79.7530
54.920,79.6534
54.930,83.1094
54.940,81.8365
54.950,90.8732
54.960,86.5413
54.970,88.8201
54.980,76.7476
54.990,82.6043
55.000,78.7294
55.010,86.5861
55.020,79.9364
55.030,81.3271
55.040,81.3813
55.050,82.4845
55.060,82.4275
55.070,87.4413
55.080,81.4463
55.090,81.5851
55.100,78.0556
55.110,80.2692
55.120,78.6045
55.130,80.8982
55.140,84.6291
55.150,80.3973
55.160,78.1905
55.170,81.1386
55.180,76.6480
55.190,81.1786
55.200,80.0513
55.210,76.3422
55.220,84.6976
55.230,85.0989
55.240,79.2106
55.250,76.6987
55.260,80.7654
55.270,73.3907
55.280,72.9104
55.290,72.0924
55.300,75.4558
55.310,81.5958
55.320,76.0062
55.330,75.6150
55.340,83.2250
55.350,83.4279
55.360,78.7457
55.370,83.2133
55.380,73.6190
55.390,75.7171
55.400,81.5743
55.410,75.0598
55.420,72.5647
55.430,74.5381
55.440,72.7201
55.450,76.0367
55.460,76.1248
55.470,72.9659
55.480,80.3249
55.490,73.5651
55.500,85.1432
55.510,81.8944
55.520,76.5232
55.530,76.1733
55.540,78.0097
55.550,74.3623
55.560,86.1099
55.570,75.4227
55.580,81.9619
55.590,81.1029
55.600,75.6837
55.610,83.1988
55.620,78.8399
55.630,79.4547
55.640,85.3053
55.650,81.3988
55.660,75.9020
55.670,83.9994
55.680,76.5307
55.690,81.1896
55.700,88.2484
55.710,79.7896
55.720,76.5504
55.730,84.8814
55.740,78.3130
55.750,83.1801
55.760,80.2178
55.770,89.7222
55.780,89.0958
55.790,89.8751
55.800,80.0347
55.810,84.8465
55.820,79.6551
55.830,90.0186
55.840,80.4435
55.850,85.9122
55.860,83.0142
55.870,82.8173
55.880,90.1903
55.890,89.3397
55.900,88.9207
55.910,86.1450
55.920,85.4045
55.930,86.6196
55.940,90.0649
55.950,81.0735
55.960,83.9435
55.970,81.8996
55.980,94.0275
55.990,81.7298
56.000,84.7934
56.010,88.2415
56.020,94.8639
56.030,93.5379
56.040,89.5927
56.050,86.8657
56.060,88.6395
56.070,95.4777
56.080,94.2820
56.090,87.7913
56.100,93.0539
56.110,86.6240
56.120,85.7736
56.130,84.3337
56.140,82.0740
56.150,92.3467
56.160,81.5856
56.170,90.9134
56.180,84.2369
56.190,91.9377
56.200,90.1724
56.210,85.7615
56.220,82.9513
56.230,91.8713
56.240,90.2716
56.250,87.1871
56.260,89.8922
56.270,83.8056
56.280,84.4293
56.290,88.5448
56.300,89.7363
56.310,79.6400
56.320,81.9962
56.330,90.8847
56.340,79.1038
56.350,81.3356
56.360,89.1755
56.370,86.5694
56.380,78.4947
56.390,86.6026
56.400,78.8578
56.410,89.2319
56.420,86.4100
56.430,89.6536
56.440,88.3605
56.450,81.3364
56.460,87.3216
56.470,84.1400
56.480,75.5797
56.490,77.1944
56.500,75.0795
56.510,76.7513
56.520,83.1445
56.530,77.8207
56.540,87.1769
56.550,73.6305
56.560,82.2078
56.570,84.6847
56.580,73.1468
56.590,85.2135
56.600,79.3875
56.610,83.5103
56.620,81.4978
56.630,81.9103
56.640,83.3780
56.650,72.3891
56.660,73.8241
56.670,80.8981
56.680,75.4463
56.690,82.4546
56.700,84.1896
56.710,79.6005
56.720,79.0364
56.730,71.9611
56.740,76.1934
56.750,83.0958
56.760,76.6482
56.770,81.2104
56.780,71.1780
56.790,81.9118
56.800,72.1456
56.810,80.2840
56.820,83.8623
56.830,84.5173
56.840,75.7613
56.850,71.4873
56.860,73.6954
56.870,72.4258
56.880,78.6741
56.890,83.0463
56.900,81.5330
56.910,82.5336
56.920,75.2941
56.930,79.7554
56.940,76.8289
56.950,77.5455
56.960,77.0249
56.970,83.1062
56.980,74.2481
56.990,80.2319
57.000,75.0113
57.010,83.6196
57.020,79.9905
57.030,76.0629
57.040,78.4653
57.050,87.0059
57.060,78.1995
57.070,86.6492
57.080,88.3171
57.090,83.9000
57.100,88.4756
57.110,86.4999
57.120,84.3943
57.130,79.7304
57.140,78.7201
57.150,88.4083
57.160,79.5080
57.170,84.1377
57.180,79.0743
57.190,85.2908
57.200,89.5261
57.210,90.7233
57.220,87.1032
57.230,84.5100
57.240,88.9938
57.250,83.2924
57.260,91.6834
57.270,89.7698
57.280,92.6065
57.290,88.2514
57.300,93.3368
57.310,85.6861
57.320,84.3313
57.330,88.9656
57.340,85.4251
57.350,87.8988
57.360,86.0389
57.370,87.2125
57.380,84.3963
57.390,89.7410
57.400,85.1035
57.410,84.9358
57.420,86.8852
57.430,81.9165
57.440,83.3922
57.450,90.1117
57.460,93.1954
57.470,93.4210
57.480,90.3255
57.490,93.3651
57.500,87.9009
57.510,90.0142
57.520,84.1627
57.530,94.1502
57.540,82.0743
57.550,85.3317
57.560,94.2149
57.570,91.9814
57.580,83.0870
57.590,90.1623
57.600,89.3917
57.610,83.7441
57.620,85.4758
57.630,81.6934
57.640,82.0331
57.650,88.0245
57.660,93.0151
57.670,81.1335
57.680,82.3600
57.690,87.7877
57.700,89.9261
57.710,92.3152
57.720,86.6626
57.730,90.7070
57.740,88.2646
57.750,86.0752
57.760,80.9107
57.770,79.3750
57.780,81.1155
57.790,79.4718
57.800,85.1063
57.810,88.1734
57.820,85.0280
57.830,86.6093
57.840,90.4435
57.850,82.9072
57.860,89.4493
57.870,78.1865
57.880,77.7305
57.890,78.6406
57.900,84.5990
57.910,82.0692
57.920,85.6035
57.930,75.4778
57.940,76.1339
57.950,86.2301
57.960,86.4068
57.970,80.3192
57.980,86.0994
57.990,85.9771
58.000,80.4499
58.010,82.0266
58.020,82.7585
58.030,78.5367
58.040,84.0844
58.050,83.4787
58.060,82.2887
58.070,81.5705
58.080,78.8845
58.090,81.2783
58.100,76.9925
58.110,83.4753
58.120,73.3390
58.130,75.7490
58.140,72.0265
58.150,79.0541
58.160,83.9972
58.170,71.5416
58.180,78.4748
58.190,72.4419
58.200,83.9694
58.210,81.2506
58.220,80.5944
58.230,74.0797
58.240,83.7379
58.250,73.0510
58.260,76.0821
58.270,75.1115
58.280,83.7373
58.290,71.4237
58.300,84.6049
58.310,81.5145
58.320,78.0807
58.330,84.6971
58.340,83.7024
58.350,82.3716
58.360,81.8392
58.370,85.1271
58.380,80.3174
58.390,74.3589
58.400,77.9413
58.410,77.7697
58.420,78.4832
58.430,77.0219
58.440,83.0284
58.450,86.2029
58.460,76.1808
58.470,74.2913
58.480,77.4775
58.490,86.4402
58.500,87.8896
58.510,81.2202
58.520,86.4427
58.530,85.3876
58.540,82.3965
58.550,86.0487
58.560,83.2981
58.570,86.1514
58.580,85.9421
58.590,83.3670
58.600,89.6024
58.610,86.3660
58.620,91.3710
58.630,78.4192
58.640,91.9002
58.650,78.6532
58.660,87.6923
58.670,84.1746
58.680,86.9215
58.690,80.9626
58.700,86.7400
58.710,82.5292
58.720,81.9553
58.730,82.9203
58.740,92.1168
58.750,84.3321
58.760,83.4912
58.770,90.2650
58.780,94.2533
58.790,88.0977
58.800,91.4800
58.810,83.0188
58.820,82.6490
58.830,93.6506
58.840,86.0564
58.850,90.4544
58.860,95.6612
58.870,91.1296
58.880,88.1393
58.890,84.9471
58.900,86.7422
58.910,94.0594
58.920,94.2623
58.930,88.7498
58.940,86.5159
58.950,88.9997
58.960,91.4449
58.970,92.2109
58.980,95.5406
58.990,91.5516
59.000,90.4858
59.010,83.4424
59.020,92.7459
59.030,91.6217
59.040,89.4430
59.050,94.5280
59.060,92.5320
59.070,82.7744
59.080,94.0538
59.090,84.5482
59.100,90.1819
59.110,90.6285
59.120,85.4928
59.130,87.2502
59.140,85.5546
59.150,82.5929
59.160,87.3988
59.170,86.9244
59.180,80.4433
59.190,81.4658
59.200,79.7566
59.210,86.1657
59.220,79.5337
59.230,83.4861
59.240,82.4587
59.250,89.4203
59.260,83.9795
59.270,87.1083
59.280,79.0144
59.290,89.9300
59.300,82.1477
59.310,77.4198
59.320,80.1659
59.330,77.0361
59.340,88.7556
59.350,81.4638
59.360,86.7629
59.370,83.5839
59.380,75.0082
59.390,82.7485
59.400,79.6601
59.410,83.3047
59.420,83.5968
59.430,79.7199
59.440,84.2722
59.450,83.1337
59.460,75.1964
59.470,81.6528
59.480,80.3929
59.490,81.0652
59.500,84.0634
59.510,73.2346
59.520,78.9847
59.530,76.4826
59.540,83.8728
59.550,73.3601
59.560,82.8262
59.570,77.0535
59.580,75.5864
59.590,74.4085
59.600,83.1500
59.610,77.5767
59.620,85.1588
59.630,78.2592
59.640,71.9859
59.650,83.8800
59.660,75.3291
59.670,75.2564
59.680,80.9086
59.690,81.4071
59.700,74.4858
59.710,71.8803
59.720,75.3773
59.730,79.9604
59.740,85.6838
59.750,79.6122
59.760,85.0116
59.770,79.8343
59.780,83.2447
59.790,82.2154
59.800,86.4001
59.810,82.8631
59.820,79.5116
59.830,75.9375
59.840,82.7568
59.850,77.7402
59.860,78.3993
59.870,80.3118
59.880,84.6495
59.890,86.3234
59.900,83.4158
59.910,75.0565
59.920,86.5404
59.930,79.1095
59.940,86.4173
59.950,78.0542
59.960,80.2934
59.970,82.4606
59.980,86.2785
59.990,88.9038
