t_s,envelope_uV
0.000,69.7006
0.010,68.3361
0.020,64.5046
0.030,60.3332
0.040,65.6659
0.050,68.0784
0.060,69.9760
0.070,61.9077
0.080,61.5522
0.090,63.7969
0.100,61.6344
0.110,61.8048
0.120,69.3979
0.130,61.8919
0.140,73.6875
0.150,68.3076
0.160,70.3406
0.170,64.8289
0.180,73.0977
0.190,69.7844
0.200,70.9517
0.210,71.0623
0.220,71.2838
0.230,65.6023
0.240,63.3635
0.250,64.6291
0.260,63.2926
0.270,75.2718
0.280,71.8581
0.290,69.7620
0.300,74.2917
0.310,66.4600
0.320,67.1098
0.330,65.0903
0.340,69.6712
0.350,67.3691
0.360,68.3668
0.370,64.1234
0.380,75.6301
0.390,72.8276
0.400,69.2691
0.410,68.0884
0.420,69.3708
0.430,71.3807
0.440,71.4991
0.450,67.5741
0.460,63.4755
0.470,66.2570
0.480,65.5209
0.490,73.5630
0.500,62.6416
0.510,74.7237
0.520,66.3173
0.530,68.2434
0.540,73.8542
0.550,65.9839
0.560,69.5237
0.570,68.3551
0.580,69.5484
0.590,73.4100
0.600,67.3024
0.610,68.2724
0.620,60.6274
0.630,60.7583
0.640,72.2551
0.650,60.2388
0.660,63.0827
0.670,62.5122
0.680,60.5540
0.690,65.6729
0.700,69.0601
0.710,67.8629
0.720,61.5194
0.730,67.6369
0.740,58.3492
0.750,67.8355
0.760,69.3219
0.770,67.8196
0.780,68.9616
0.790,69.1757
0.800,65.9914
0.810,67.7831
0.820,63.6360
0.830,65.0128
0.840,63.3676
0.850,62.2630
0.860,57.2852
0.870,65.0502
0.880,67.1940
0.890,64.7460
0.900,66.9195
0.910,56.9084
0.920,55.0282
0.930,61.6308
0.940,57.4131
0.950,55.6688
0.960,66.4020
0.970,62.4788
0.980,57.1607
0.990,62.8937
1.000,59.1397
1.010,64.6448
1.020,57.5432
1.030,58.2251
1.040,55.8318
1.050,55.2139
1.060,65.6213
1.070,61.4190
1.080,63.0013
1.090,58.9844
1.100,56.2735
1.110,57.2695
1.120,62.0717
1.130,59.7424
1.140,65.3595
1.150,65.1591
1.160,57.5092
1.170,65.0420
1.180,60.1468
1.190,61.0924
1.200,60.2773
1.210,63.7784
1.220,58.3943
1.230,63.3377
1.240,57.8580
1.250,66.2001
1.260,60.3528
1.270,59.6596
1.280,55.5929
1.290,59.5952
1.300,64.4898
1.310,67.7922
1.320,56.7130
1.330,61.3465
1.340,61.2841
1.350,65.6958
1.360,67.2011
1.370,69.0788
1.380,69.0972
1.390,62.5639
1.400,69.4741
1.410,70.7558
1.420,62.3154
1.430,61.2112
1.440,59.4768
1.450,63.4976
1.460,63.7459
1.470,61.9234
1.480,64.2543
1.490,69.5480
1.500,71.9046
1.510,62.1017
1.520,69.8375
1.530,67.9234
1.540,69.8752
1.550,71.3645
1.560,63.7921
1.570,70.9862
1.580,65.2468
1.590,71.0734
1.600,64.8023
1.610,65.0291
1.620,69.9470
1.630,69.5902
1.640,74.8734
1.650,66.6196
1.660,68.1722
1.670,68.7366
1.680,72.0031
1.690,73.6386
1.700,70.9482
1.710,75.4625
1.720,72.0571
1.730,71.5612
1.740,74.1531
1.750,64.5459
1.760,72.2756
1.770,66.0446
1.780,76.3231
1.790,73.7913
1.800,72.8431
1.810,71.6585
1.820,64.5903
1.830,73.9068
1.840,73.3231
1.850,67.1670
1.860,70.2271
1.870,67.3716
1.880,68.6191
1.890,64.8613
1.900,72.9955
1.910,75.2075
1.920,71.4271
1.930,72.4352
1.940,69.0219
1.950,65.4100
1.960,64.8113
1.970,69.4822
1.980,67.9943
1.990,68.0255
2.000,65.8642
2.010,67.9527
2.020,68.6121
2.030,65.8902
2.040,70.3451
2.050,67.6702
2.060,62.1687
2.070,69.1203
2.080,72.6558
2.090,69.6675
2.100,60.1892
2.110,61.8237
2.120,67.7524
2.130,59.4798
2.140,68.1959
2.150,68.3717
2.160,64.5554
2.170,59.2600
2.180,59.0827
2.190,60.7648
2.200,67.9859
2.210,65.7672
2.220,57.5107
2.230,69.0228
2.240,67.6830
2.250,62.0847
2.260,61.6794
2.270,59.0486
2.280,56.5839
2.290,56.9430
2.300,62.0844
2.310,55.8099
2.320,59.9420
2.330,62.2817
2.340,64.5715
2.350,66.9050
2.360,56.5731
2.370,58.4266
2.380,55.4651
2.390,66.5350
2.400,62.6910
2.410,53.7826
2.420,55.2912
2.430,66.4287
2.440,60.6977
2.450,56.0879
2.460,58.4131
2.470,57.6410
2.480,54.2390
2.490,59.1061
2.500,61.5545
2.510,58.4702
2.520,55.7361
2.530,59.1955
2.540,62.0742
2.550,63.0066
2.560,54.7273
2.570,57.7076
2.580,54.9225
2.590,61.8518
2.600,60.0052
2.610,55.4986
2.620,55.4441
2.630,54.6907
2.640,59.3965
2.650,56.5304
2.660,62.9687
2.670,65.7310
2.680,60.1359
2.690,55.6952
2.700,58.3421
2.710,60.5551
2.720,57.6898
2.730,56.9549
2.740,60.2338
2.750,56.9225
2.760,62.3507
2.770,66.7992
2.780,69.4655
2.790,60.2265
2.800,63.7555
2.810,70.2525
2.820,70.2774
2.830,64.1265
2.840,64.9621
2.850,62.8500
2.860,59.4723
2.870,60.7876
2.880,71.6371
2.890,63.7046
2.900,64.4880
2.910,68.6154
2.920,61.4094
2.930,70.0107
2.940,61.0256
2.950,61.4383
2.960,61.5248
2.970,61.4545
2.980,64.9763
2.990,63.1214
3.000,61.8589
3.010,66.1079
3.020,71.4926
3.030,63.0218
3.040,63.9684
3.050,74.8003
3.060,72.7702
3.070,62.9117
3.080,73.3942
3.090,73.8382
3.100,68.8261
3.110,72.8334
3.120,73.8782
3.130,71.3711
3.140,74.5992
3.150,65.6312
3.160,66.9575
3.170,65.7606
3.180,71.5420
3.190,66.0415
3.200,75.0383
3.210,72.7315
3.220,74.9918
3.230,71.5147
3.240,71.0396
3.250,75.7210
3.260,71.6640
3.270,76.3938
3.280,69.8888
3.290,70.1877
3.300,63.3821
3.310,68.2815
3.320,75.0097
3.330,67.1784
3.340,74.5056
3.350,72.0928
3.360,66.3312
3.370,68.0883
3.380,64.0653
3.390,67.7995
3.400,71.2938
3.410,66.0494
3.420,67.9345
3.430,70.5192
3.440,73.9182
3.450,66.1262
3.460,65.9539
3.470,62.4203
3.480,65.1196
3.490,66.9521
3.500,68.3758
3.510,68.3362
3.520,65.1822
3.530,67.5743
3.540,64.4718
3.550,71.4720
3.560,67.1617
3.570,61.9607
3.580,64.6461
3.590,66.8110
3.600,59.7855
3.610,62.3919
3.620,61.3910
3.630,69.3947
3.640,62.1223
3.650,62.0064
3.660,66.8154
3.670,67.0441
3.680,60.4758
3.690,56.7376
3.700,67.0744
3.710,64.1690
3.720,61.8791
3.730,64.1577
3.740,57.6696
3.750,64.2846
3.760,61.0380
3.770,67.0171
3.780,55.2422
3.790,58.3911
3.800,65.4346
3.810,54.4863
3.820,64.2923
3.830,64.8337
3.840,60.6757
3.850,56.1293
3.860,63.6434
3.870,65.6367
3.880,62.4325
3.890,55.6194
3.900,57.8446
3.910,56.4942
3.920,63.0995
3.930,53.7735
3.940,58.6265
3.950,62.9806
3.960,60.2145
3.970,60.3824
3.980,63.3763
3.990,60.3802
4.000,57.8915
4.010,64.6827
4.020,60.2665
4.030,65.9527
4.040,55.1174
4.050,54.3405
4.060,64.1634
4.070,62.3762
4.080,63.4747
4.090,56.5977
4.100,65.8355
4.110,56.5460
4.120,60.1601
4.130,60.7969
4.140,62.1225
4.150,65.4469
4.160,64.0141
4.170,69.0301
4.180,56.4178
4.190,68.8721
4.200,61.6334
4.210,67.1297
4.220,58.9010
4.230,69.7895
4.240,67.2698
4.250,64.0500
4.260,64.2901
4.270,70.8022
4.280,67.4256
4.290,69.4564
4.300,66.9855
4.310,61.3886
4.320,64.7032
4.330,65.3089
4.340,63.2959
4.350,72.5875
4.360,64.1294
4.370,62.5554
4.380,68.3314
4.390,66.2018
4.400,72.6963
4.410,65.6504
4.420,61.6883
4.430,71.3646
4.440,62.1744
4.450,71.5656
4.460,70.4324
4.470,72.3816
4.480,66.4791
4.490,62.8949
4.500,73.4325
4.510,69.9626
4.520,72.9124
4.530,71.2305
4.540,63.8469
4.550,66.6272
4.560,69.8468
4.570,65.4436
4.580,73.5324
4.590,66.1737
4.600,70.6676
4.610,74.4073
4.620,72.0395
4.630,76.4837
4.640,66.2542
4.650,69.3564
4.660,75.6569
4.670,66.9683
4.680,68.9244
4.690,74.0810
4.700,65.2863
4.710,73.1244
4.720,68.3339
4.730,63.5841
4.740,67.1037
4.750,70.6864
4.760,63.7739
4.770,71.2534
4.780,74.0395
4.790,68.2484
4.800,68.4319
4.810,64.1665
4.820,69.1645
4.830,73.0578
4.840,65.4918
4.850,65.6329
4.860,63.4804
4.870,65.5148
4.880,68.2892
4.890,70.3018
4.900,68.0531
4.910,61.3736
4.920,71.2365
4.930,68.9242
4.940,71.3764
4.950,66.9115
4.960,64.3735
4.970,67.4029
4.980,63.4343
4.990,66.7895
5.000,64.4462
5.010,61.9761
5.020,59.8985
5.030,70.9542
5.040,66.0328
5.050,62.7029
5.060,64.9243
5.070,67.0659
5.080,68.1915
5.090,68.9995
5.100,63.2332
5.110,66.3771
5.120,56.2663
5.130,60.3032
5.140,56.9833
5.150,62.8905
5.160,60.6862
5.170,66.4892
5.180,64.2220
5.190,64.4124
5.200,63.2552
5.210,59.5932
5.220,57.4050
5.230,60.5135
5.240,55.9015
5.250,64.0926
5.260,60.3557
5.270,62.0960
5.280,62.7437
5.290,58.5656
5.300,55.5682
5.310,59.5258
5.320,64.6734
5.330,63.4053
5.340,58.7515
5.350,58.9810
5.360,60.0867
5.370,58.6930
5.380,57.0669
5.390,57.9039
5.400,65.4713
5.410,64.0481
5.420,61.5065
5.430,56.8373
5.440,65.1360
5.450,66.2554
5.460,57.4465
5.470,57.3238
5.480,56.9284
5.490,60.9203
5.500,56.5176
5.510,63.8667
5.520,58.2115
5.530,64.6046
5.540,57.2477
5.550,62.8058
5.560,57.5906
5.570,65.7705
5.580,67.7066
5.590,57.5690
5.600,64.4608
5.610,57.8996
5.620,67.7403
5.630,62.0268
5.640,61.2290
5.650,63.3325
5.660,70.0677
5.670,69.6847
5.680,60.5162
5.690,62.8325
5.700,61.5956
5.710,63.6614
5.720,69.1895
5.730,67.4607
5.740,61.5929
5.750,67.8046
5.760,69.1166
5.770,65.0902
5.780,65.2634
5.790,72.3355
5.800,65.4463
5.810,65.8142
5.820,63.3152
5.830,64.6421
5.840,67.1588
5.850,68.3187
5.860,70.3243
5.870,65.4603
5.880,70.1630
5.890,63.5570
5.900,65.4615
5.910,66.5738
5.920,68.5938
5.930,63.4540
5.940,65.8599
5.950,66.8567
5.960,68.8315
5.970,65.0569
5.980,67.0002
5.990,68.5520
6.000,73.0934
6.010,67.9284
6.020,75.0966
6.030,73.2753
6.040,74.7162
6.050,76.2123
6.060,65.5667
6.070,72.3881
6.080,75.4050
6.090,70.2534
6.100,73.4337
6.110,65.4461
6.120,64.5764
6.130,74.4932
6.140,68.4505
6.150,69.2704
6.160,67.0987
6.170,67.9756
6.180,71.2410
6.190,74.5184
6.200,68.8456
6.210,72.6218
6.220,63.5532
6.230,73.3595
6.240,67.1699
6.250,74.5826
6.260,68.6922
6.270,74.5051
6.280,74.7226
6.290,62.4678
6.300,73.1143
6.310,62.1607
6.320,65.4692
6.330,63.7166
6.340,62.4079
6.350,61.2222
6.360,68.3678
6.370,64.1631
6.380,61.5992
6.390,65.7014
6.400,62.2715
6.410,66.2649
6.420,59.5527
6.430,69.3938
6.440,70.2804
6.450,67.6050
6.460,64.8448
6.470,62.9009
6.480,64.6647
6.490,59.8052
6.500,59.2759
6.510,57.8037
6.520,57.3270
6.530,67.2359
6.540,67.9362
6.550,66.8372
6.560,57.0134
6.570,60.8034
6.580,61.8190
6.590,62.3011
6.600,68.1531
6.610,67.1848
6.620,57.4743
6.630,61.8697
6.640,56.0333
6.650,60.9424
6.660,67.2869
6.670,63.4489
6.680,65.6091
6.690,56.2988
6.700,57.9481
6.710,55.5922
6.720,66.7662
6.730,59.4877
6.740,60.4348
6.750,65.2460
6.760,61.7133
6.770,54.1839
6.780,58.0097
6.790,64.6382
6.800,54.2500
6.810,63.1640
6.820,54.1070
6.830,55.8623
6.840,66.0701
6.850,62.6015
6.860,58.8118
6.870,58.4425
6.880,63.6279
6.890,61.0874
6.900,63.9008
6.910,58.7032
6.920,60.8358
6.930,62.6456
6.940,65.6344
6.950,56.3062
6.960,64.7815
6.970,55.5134
6.980,61.6352
6.990,58.4884
7.000,65.1533
7.010,61.1835
7.020,59.1984
7.030,61.6779
7.040,67.4640
7.050,60.8355
7.060,68.6689
7.070,65.2933
7.080,58.0403
7.090,61.7018
7.100,60.5214
7.110,61.0505
7.120,70.1823
7.130,58.7566
7.140,65.9829
7.150,69.1161
7.160,60.2150
7.170,71.0024
7.180,72.1592
7.190,61.2441
7.200,61.4765
7.210,67.3168
7.220,63.8489
7.230,65.8955
7.240,71.8193
7.250,69.2555
7.260,63.6593
7.270,64.7381
7.280,72.8218
7.290,73.5047
7.300,72.9233
7.310,65.6987
7.320,71.4810
7.330,73.4915
7.340,71.4193
7.350,66.6781
7.360,71.6199
7.370,73.6868
7.380,65.3602
7.390,72.9303
7.400,63.9721
7.410,72.1140
7.420,72.0330
7.430,72.2840
7.440,69.3437
7.450,72.8770
7.460,76.0144
7.470,76.8260
7.480,66.3031
7.490,64.9651
7.500,69.2450
7.510,73.1141
7.520,72.3175
7.530,74.6861
7.540,66.5114
7.550,66.6716
7.560,74.9687
7.570,75.5855
7.580,67.1112
7.590,66.3779
7.600,66.3749
7.610,68.9110
7.620,65.2715
7.630,75.9005
7.640,65.5528
7.650,72.0860
7.660,72.6735
7.670,62.8424
7.680,71.5894
7.690,68.7683
7.700,66.9528
7.710,71.3156
7.720,66.7159
7.730,72.0892
7.740,66.0623
7.750,61.8041
7.760,65.1547
7.770,73.4940
7.780,69.9270
7.790,66.0864
7.800,71.1837
7.810,67.8161
7.820,65.5010
7.830,69.5909
7.840,64.3538
7.850,69.7679
7.860,67.6108
7.870,67.6131
7.880,69.7357
7.890,62.1046
7.900,70.6269
7.910,66.3471
7.920,67.1989
7.930,57.6765
7.940,63.7705
7.950,64.7583
7.960,59.9412
7.970,60.0926
7.980,65.6821
7.990,65.2185
8.000,59.5699
8.010,64.2533
8.020,59.7441
8.030,58.5259
8.040,67.1192
8.050,63.6947
8.060,62.3326
8.070,58.2932
8.080,58.9303
8.090,59.4495
8.100,57.9791
8.110,55.7964
8.120,65.5201
8.130,66.0989
8.140,63.6893
8.150,54.8777
8.160,63.9773
8.170,56.4146
8.180,64.5324
8.190,63.9879
8.200,62.5517
8.210,65.3510
8.220,55.3194
8.230,54.4902
8.240,62.1260
8.250,62.9702
8.260,63.9005
8.270,64.3092
8.280,58.0767
8.290,55.5457
8.300,64.8159
8.310,61.9266
8.320,64.4949
8.330,65.5053
8.340,64.1598
8.350,60.5608
8.360,64.7859
8.370,59.4051
8.380,58.2493
8.390,61.2501
8.400,61.4288
8.410,65.6171
8.420,63.1244
8.430,57.3329
8.440,60.0231
8.450,62.7193
8.460,58.6828
8.470,66.2844
8.480,57.4891
8.490,69.3369
8.500,69.9836
8.510,59.9469
8.520,69.6189
8.530,67.1231
8.540,61.3925
8.550,67.8764
8.560,58.8882
8.570,70.1964
8.580,61.8854
8.590,71.9029
8.600,63.0314
8.610,69.5865
8.620,69.8143
8.630,64.7957
8.640,70.1275
8.650,64.7839
8.660,72.3157
8.670,67.2622
8.680,64.8358
8.690,69.0823
8.700,63.8815
8.710,63.9160
8.720,67.8396
8.730,73.5838
8.740,69.8325
8.750,70.5654
8.760,75.1160
8.770,69.8159
8.780,70.1162
8.790,73.0054
8.800,64.2269
8.810,75.8595
8.820,65.9866
8.830,76.3738
8.840,68.6293
8.850,68.2367
8.860,72.3549
8.870,74.6400
8.880,69.1365
8.890,67.7362
8.900,76.8660
8.910,64.4065
8.920,67.9754
8.930,65.3482
8.940,69.8411
8.950,71.1755
8.960,68.5839
8.970,68.4929
8.980,64.4932
8.990,67.3412
9.000,64.6829
9.010,74.4892
9.020,66.0458
9.030,74.2212
9.040,74.3089
9.050,73.6481
9.060,64.2592
9.070,70.2103
9.080,67.5153
9.090,64.0078
9.100,66.9274
9.110,73.3589
9.120,68.4840
9.130,71.1848
9.140,72.7398
9.150,65.1974
9.160,73.6848
9.170,74.6151
9.180,72.2471
9.190,63.7951
9.200,71.0387
9.210,62.0885
9.220,68.3650
9.230,62.8869
9.240,68.3757
9.250,61.1483
9.260,67.9942
9.270,63.9887
9.280,60.0232
9.290,59.8555
9.300,64.0105
9.310,62.3459
9.320,65.5216
9.330,59.1198
9.340,67.0301
9.350,69.2180
9.360,69.8089
9.370,57.4418
9.380,64.9612
9.390,69.5910
9.400,63.0347
9.410,67.8079
9.420,56.6728
9.430,60.7673
9.440,64.0032
9.450,59.0160
9.460,63.6528
9.470,62.9327
9.480,64.3429
9.490,63.2924
9.500,58.5910
9.510,67.4624
9.520,60.5806
9.530,60.0659
9.540,60.6133
9.550,65.4304
9.560,62.4409
9.570,62.5455
9.580,62.2013
9.590,55.5399
9.600,55.0417
9.610,64.0022
9.620,55.7593
9.630,65.8619
9.640,59.3287
9.650,65.0415
9.660,62.5473
9.670,58.6137
9.680,58.5417
9.690,54.8981
9.700,55.6536
9.710,58.3987
9.720,58.9925
9.730,59.6316
9.740,59.0121
9.750,62.5933
9.760,56.0467
9.770,65.3457
9.780,66.4685
9.790,62.5051
9.800,62.0260
9.810,64.6157
9.820,65.0271
9.830,61.6989
9.840,59.9128
9.850,64.8682
9.860,59.9535
9.870,66.6715
9.880,68.9534
9.890,57.8728
9.900,67.3855
9.910,68.5992
9.920,64.0346
9.930,69.5363
9.940,69.6636
9.950,62.6688
9.960,68.0192
9.970,70.9792
9.980,64.9502
9.990,65.5481
10.000,68.1741
10.010,69.3571
10.020,69.1297
10.030,71.9765
10.040,64.9332
10.050,61.0258
10.060,70.5664
10.070,64.2043
10.080,68.9051
10.090,71.2420
10.100,71.8526
10.110,68.3176
10.120,63.7054
10.130,70.4511
10.140,64.9436
10.150,75.0378
10.160,74.7435
10.170,73.2590
10.180,65.2283
10.190,67.5246
10.200,75.1204
10.210,72.2889
10.220,68.3817
10.230,68.7410
10.240,67.8296
10.250,68.4110
10.260,66.6971
10.270,76.1854
10.280,64.5781
10.290,74.1829
10.300,64.5082
10.310,71.9471
10.320,75.7829
10.330,65.2886
10.340,67.4375
10.350,64.8188
10.360,66.6641
10.370,72.4601
10.380,68.4134
10.390,77.2964
10.400,68.2507
10.410,65.2267
10.420,71.8679
10.430,69.9101
10.440,76.7187
10.450,71.2507
10.460,73.4731
10.470,70.7019
10.480,65.4943
10.490,65.1599
10.500,74.8514
10.510,71.8747
10.520,74.3000
10.530,66.3347
10.540,70.1622
10.550,63.2315
10.560,64.5597
10.570,69.3360
10.580,73.7157
10.590,74.4741
10.600,67.7152
10.610,62.1496
10.620,61.6276
10.630,63.1180
10.640,62.5614
10.650,64.2166
10.660,70.0609
10.670,71.0664
10.680,62.8085
10.690,70.2586
10.700,61.3017
10.710,64.3115
10.720,68.7695
10.730,65.3718
10.740,67.6986
10.750,63.6875
10.760,59.7935
10.770,62.3528
10.780,60.2706
10.790,69.7983
10.800,61.9820
10.810,66.5337
10.820,67.9468
10.830,57.8722
10.840,65.5298
10.850,62.3983
10.860,66.5309
10.870,66.5650
10.880,57.4929
10.890,65.3358
10.900,59.0412
10.910,61.7591
10.920,58.5476
10.930,57.5037
10.940,59.0716
10.950,59.4393
10.960,61.8869
10.970,59.0923
10.980,65.4705
10.990,61.7111
11.000,66.2069
11.010,55.1014
11.020,58.2497
11.030,60.3908
11.040,56.2125
11.050,54.9523
11.060,62.1194
11.070,65.0883
11.080,57.4303
11.090,62.7752
11.100,62.8767
11.110,63.4204
11.120,54.3773
11.130,57.1403
11.140,64.9877
11.150,63.7717
11.160,56.3482
11.170,65.9351
11.180,64.7451
11.190,56.6856
11.200,59.3838
11.210,66.4110
11.220,60.6136
11.230,59.9088
11.240,64.5106
11.250,63.1962
11.260,59.6492
11.270,63.1599
11.280,67.0599
11.290,58.3328
11.300,68.7727
11.310,59.0951
11.320,64.0578
11.330,64.8140
11.340,66.3255
11.350,63.2531
11.360,59.5767
11.370,69.4088
11.380,64.0712
11.390,67.3715
11.400,64.7521
11.410,63.5818
11.420,62.2166
11.430,70.2291
11.440,68.2839
11.450,60.5959
11.460,67.6369
11.470,71.1370
11.480,72.9796
11.490,68.2291
11.500,68.1750
11.510,73.8215
11.520,62.1137
11.530,73.6583
11.540,71.6494
11.550,69.1189
11.560,73.4493
11.570,71.1685
11.580,64.7864
11.590,63.1878
11.600,75.1151
11.610,70.1044
11.620,71.7331
11.630,64.6486
11.640,71.7842
11.650,70.8625
11.660,74.1126
11.670,73.8400
11.680,75.8939
11.690,68.9976
11.700,67.6142
11.710,73.3371
11.720,67.1331
11.730,66.3546
11.740,73.1242
11.750,72.0455
11.760,72.8787
11.770,71.1765
11.780,69.9844
11.790,70.9305
11.800,69.9251
11.810,70.7356
11.820,67.8688
11.830,74.0068
11.840,73.5023
11.850,74.6557
11.860,71.8548
11.870,76.9173
11.880,69.7997
11.890,65.0289
11.900,65.3026
11.910,76.1403
11.920,69.4701
11.930,70.3342
11.940,71.6897
11.950,70.4250
11.960,68.2162
11.970,69.2741
11.980,66.4232
11.990,68.9500
12.000,62.5975
12.010,65.3946
12.020,62.8983
12.030,69.8368
12.040,67.4133
12.050,64.9923
12.060,73.8582
12.070,68.2772
12.080,63.2169
12.090,72.0510
12.100,62.0493
12.110,65.2553
12.120,60.2448
12.130,63.7097
12.140,62.5653
12.150,59.6046
12.160,63.9574
12.170,59.4530
12.180,66.6456
12.190,66.3824
12.200,69.0752
12.210,63.8920
12.220,64.0691
12.230,59.2101
12.240,61.1806
12.250,63.2890
12.260,60.2083
12.270,59.4519
12.280,68.2453
12.290,61.6805
12.300,58.3147
12.310,66.1269
12.320,67.2327
12.330,58.5519
12.340,62.7244
12.350,60.3713
12.360,67.0314
12.370,58.6917
12.380,57.0508
12.390,63.0355
12.400,62.6478
12.410,66.4885
12.420,60.0517
12.430,58.4955
12.440,59.6846
12.450,61.7146
12.460,64.4850
12.470,64.9377
12.480,56.2525
12.490,64.2566
12.500,57.5082
12.510,67.3297
12.520,65.7620
12.530,60.1053
12.540,65.2571
12.550,55.1737
12.560,64.1701
12.570,63.2280
12.580,65.9009
12.590,62.3769
12.600,58.3493
12.610,62.9847
12.620,65.3451
12.630,58.8464
12.640,66.9520
12.650,64.3891
12.660,68.4214
12.670,65.9644
12.680,55.9800
12.690,67.5108
12.700,67.7698
12.710,59.5353
12.720,58.0322
12.730,60.5039
12.740,60.7400
12.750,67.0762
12.760,60.5462
12.770,61.3770
12.780,62.4589
12.790,68.8215
12.800,65.6751
12.810,67.7140
12.820,67.1788
12.830,63.8665
12.840,60.3087
12.850,67.7645
12.860,69.4719
12.870,65.9325
12.880,63.3535
12.890,71.2661
12.900,72.9941
12.910,66.6092
12.920,67.9298
12.930,73.7691
12.940,62.2492
12.950,68.7381
12.960,73.7383
12.970,69.5994
12.980,74.5125
12.990,68.4215
13.000,73.4813
13.010,74.8650
13.020,70.1178
13.030,73.6393
13.040,74.7804
13.050,67.9992
13.060,66.4551
13.070,76.0065
13.080,64.2819
13.090,73.9772
13.100,67.9562
13.110,72.4805
13.120,71.9002
13.130,76.3899
13.140,65.2032
13.150,75.1196
13.160,67.9026
13.170,67.4748
13.180,70.3587
13.190,64.9270
13.200,66.7834
13.210,77.1733
13.220,73.9618
13.230,75.7444
13.240,77.1035
13.250,73.2866
13.260,74.6866
13.270,68.4599
13.280,76.9364
13.290,69.4741
13.300,75.5892
13.310,64.6661
13.320,69.6812
13.330,73.1610
13.340,76.2131
13.350,65.3663
13.360,66.8805
13.370,73.3926
13.380,66.7775
13.390,74.0441
13.400,74.6703
13.410,67.2063
13.420,70.1715
13.430,64.1404
13.440,69.4906
13.450,67.8914
13.460,62.2357
13.470,69.5604
13.480,68.6090
13.490,72.6614
13.500,70.7615
13.510,62.6403
13.520,66.7454
13.530,69.6684
13.540,71.9792
13.550,68.4971
13.560,71.2246
13.570,63.2645
13.580,65.7887
13.590,70.6069
13.600,71.1525
13.610,71.6247
13.620,66.4751
13.630,68.9124
13.640,61.8108
13.650,61.2981
13.660,66.8289
13.670,59.2150
13.680,64.3761
13.690,61.6995
13.700,59.6741
13.710,63.7390
13.720,68.8319
13.730,62.3423
13.740,62.0608
13.750,61.5623
13.760,61.4237
13.770,62.5179
13.780,68.4852
13.790,61.3187
13.800,57.0306
13.810,58.2708
13.820,60.0102
13.830,57.2974
13.840,57.9365
13.850,61.0221
13.860,61.8532
13.870,54.9415
13.880,60.7309
13.890,59.4098
13.900,59.5281
13.910,61.8261
13.920,63.5677
13.930,63.1859
13.940,65.9795
13.950,62.9923
13.960,55.3908
13.970,62.1614
13.980,57.6131
13.990,56.0768
14.000,65.5110
14.010,61.1695
14.020,65.7856
14.030,62.6571
14.040,60.0758
14.050,55.4209
14.060,58.0341
14.070,58.7614
14.080,57.8184
14.090,67.6319
14.100,63.1678
14.110,60.8039
14.120,61.4473
14.130,60.8374
14.140,60.4573
14.150,60.8929
14.160,57.8221
14.170,59.5536
14.180,62.1172
14.190,58.1085
14.200,59.8361
14.210,58.9571
14.220,69.8949
14.230,60.0066
14.240,71.3907
14.250,66.7293
14.260,62.0469
14.270,66.2804
14.280,68.4399
14.290,61.8958
14.300,69.4585
14.310,61.1144
14.320,65.2910
14.330,61.9868
14.340,63.8550
14.350,70.9534
14.360,70.6358
14.370,72.9284
14.380,65.4260
14.390,71.9992
14.400,70.4280
14.410,69.3818
14.420,65.6243
14.430,68.9675
14.440,65.5123
14.450,63.8141
14.460,75.1238
14.470,65.9264
14.480,65.1227
14.490,74.4353
14.500,65.4151
14.510,64.2874
14.520,75.4084
14.530,67.1977
14.540,66.6664
14.550,71.4631
14.560,72.0546
14.570,74.7854
14.580,70.3351
14.590,66.8106
14.600,75.7072
14.610,70.2475
14.620,67.7621
14.630,72.2543
14.640,73.7837
14.650,70.3283
14.660,74.2921
14.670,67.8104
14.680,73.2105
14.690,65.6393
14.700,65.2822
14.710,68.3047
14.720,73.8793
14.730,75.9289
14.740,75.8661
14.750,76.2551
14.760,73.2648
14.770,75.6791
14.780,66.2527
14.790,64.6756
14.800,76.1086
14.810,66.6129
14.820,68.3379
14.830,67.4297
14.840,69.4677
14.850,73.1357
14.860,67.0249
14.870,68.7471
14.880,72.2773
14.890,66.5605
14.900,73.9962
14.910,72.7927
14.920,62.2319
14.930,73.6548
14.940,63.6980
14.950,72.2840
14.960,66.8159
14.970,62.3121
14.980,66.3135
14.990,67.9768
15.000,71.5536
15.010,70.2122
15.020,65.4176
15.030,68.7950
15.040,65.2477
15.050,70.6631
15.060,68.8829
15.070,67.0105
15.080,71.8282
15.090,72.8982
15.100,73.9072
15.110,79.6762
15.120,82.2617
15.130,80.2328
15.140,83.3483
15.150,77.3536
15.160,85.5749
15.170,83.8177
15.180,86.0243
15.190,82.9207
15.200,85.2331
15.210,84.3710
15.220,87.2480
15.230,92.2005
15.240,94.0406
15.250,86.0982
15.260,96.7623
15.270,89.5756
15.280,91.9259
15.290,101.6748
15.300,94.4824
15.310,96.4714
15.320,103.7659
15.330,98.6283
15.340,96.5922
15.350,101.1843
15.360,102.4014
15.370,97.4957
15.380,102.1756
15.390,107.0920
15.400,105.6548
15.410,107.6341
15.420,112.5041
15.430,108.0571
15.440,107.7406
15.450,112.0666
15.460,110.1621
15.470,111.0964
15.480,109.7588
15.490,116.6301
15.500,115.4618
15.510,115.4689
15.520,112.1261
15.530,124.8584
15.540,123.6272
15.550,123.7220
15.560,116.5515
15.570,126.0176
15.580,119.4696
15.590,131.0257
15.600,127.1913
15.610,121.0365
15.620,134.3975
15.630,132.1039
15.640,135.0398
15.650,126.0944
15.660,130.2963
15.670,128.9041
15.680,129.8389
15.690,130.7989
15.700,136.1960
15.710,134.2521
15.720,132.5763
15.730,136.2346
15.740,140.7746
15.750,143.5080
15.760,142.1362
15.770,149.0429
15.780,141.8996
15.790,144.6935
15.800,147.6503
15.810,148.9127
15.820,150.6034
15.830,150.1397
15.840,154.3239
15.850,155.9450
15.860,145.9940
15.870,147.3565
15.880,160.0074
15.890,157.7034
15.900,155.4883
15.910,159.4234
15.920,151.9829
15.930,153.9618
15.940,158.2231
15.950,156.1624
15.960,156.3769
15.970,163.7473
15.980,165.6964
15.990,164.6792
16.000,163.4249
16.010,165.1245
16.020,162.8053
16.030,160.6432
16.040,170.7107
16.050,165.5891
16.060,161.5999
16.070,168.4523
16.080,163.4466
16.090,169.4849
16.100,167.1444
16.110,166.2999
16.120,163.6158
16.130,164.4888
16.140,165.6228
16.150,170.5459
16.160,168.9092
16.170,167.4776
16.180,162.6828
16.190,165.5881
16.200,166.4955
16.210,166.8233
16.220,172.1409
16.230,160.1127
16.240,167.9901
16.250,161.4441
16.260,168.3906
16.270,166.5369
16.280,171.6522
16.290,160.6266
16.300,165.8968
16.310,170.2707
16.320,162.5504
16.330,168.4274
16.340,163.3356
16.350,164.8221
16.360,160.6664
16.370,160.2316
16.380,170.7727
16.390,164.9874
16.400,171.4234
16.410,167.0628
16.420,163.4466
16.430,160.2400
16.440,165.3997
16.450,169.3085
16.460,160.4659
16.470,163.9708
16.480,170.3830
16.490,171.6314
16.500,168.7438
16.510,163.8665
16.520,161.5519
16.530,170.8961
16.540,168.2037
16.550,163.2020
16.560,160.3353
16.570,172.1062
16.580,164.5792
16.590,165.6133
16.600,170.8084
16.610,163.1934
16.620,162.8070
16.630,171.2568
16.640,165.4259
16.650,161.2157
16.660,167.8710
16.670,160.5158
16.680,163.0741
16.690,169.0251
16.700,172.6481
16.710,164.3974
16.720,165.8922
16.730,165.9045
16.740,162.3887
16.750,168.2184
16.760,164.3245
16.770,171.6560
16.780,163.2770
16.790,171.6735
16.800,165.6105
16.810,170.9609
16.820,172.0047
16.830,169.6306
16.840,160.5791
16.850,166.7808
16.860,166.1735
16.870,170.3464
16.880,172.5925
16.890,163.2356
16.900,165.4790
16.910,161.3705
16.920,163.8767
16.930,165.9682
16.940,171.8144
16.950,161.7466
16.960,169.2952
16.970,167.7644
16.980,162.2046
16.990,162.8914
17.000,58.6533
17.010,66.3989
17.020,60.9255
17.030,62.7836
17.040,67.4270
17.050,59.7519
17.060,68.8356
17.070,69.8732
17.080,61.2567
17.090,69.7684
17.100,62.2769
17.110,67.0080
17.120,61.0439
17.130,71.9778
17.140,65.3595
17.150,70.3548
17.160,63.0938
17.170,71.3407
17.180,72.5257
17.190,64.6492
17.200,65.3716
17.210,63.4952
17.220,70.6404
17.230,63.4367
17.240,65.8021
17.250,71.5790
17.260,67.7857
17.270,66.6003
17.280,63.5256
17.290,67.1931
17.300,72.9347
17.310,66.7545
17.320,72.5003
17.330,74.4824
17.340,75.0643
17.350,75.8310
17.360,69.6889
17.370,67.7841
17.380,69.2795
17.390,70.1916
17.400,70.0864
17.410,69.9492
17.420,72.0283
17.430,69.8298
17.440,72.1551
17.450,65.5723
17.460,75.3969
17.470,69.2858
17.480,67.4635
17.490,77.0193
17.500,77.5288
17.510,70.5063
17.520,76.4707
17.530,71.8346
17.540,75.4812
17.550,66.7147
17.560,67.3422
17.570,66.9781
17.580,70.3756
17.590,66.5198
17.600,67.0718
17.610,71.4445
17.620,66.9123
17.630,74.2031
17.640,64.4861
17.650,71.9483
17.660,72.0498
17.670,73.6589
17.680,67.5038
17.690,72.1626
17.700,71.3188
17.710,74.6573
17.720,63.2048
17.730,75.2213
17.740,71.1492
17.750,69.7679
17.760,74.2067
17.770,67.5846
17.780,72.6548
17.790,69.0125
17.800,70.9980
17.810,66.2482
17.820,63.8328
17.830,61.5305
17.840,61.1584
17.850,67.5036
17.860,71.8847
17.870,59.9418
17.880,71.2756
17.890,67.1614
17.900,63.3273
17.910,60.9856
17.920,62.5623
17.930,65.8043
17.940,66.5665
17.950,58.8195
17.960,65.4423
17.970,59.7888
17.980,61.2876
17.990,61.6487
18.000,59.0593
18.010,60.4746
18.020,59.6103
18.030,58.8039
18.040,61.7869
18.050,65.1560
18.060,67.0887
18.070,60.4894
18.080,56.2224
18.090,67.3925
18.100,56.3411
18.110,57.0589
18.120,57.8032
18.130,66.4540
18.140,66.8736
18.150,64.5093
18.160,63.3587
18.170,65.1689
18.180,60.7330
18.190,60.8755
18.200,59.5251
18.210,66.1133
18.220,66.8444
18.230,55.8456
18.240,60.7857
18.250,55.6520
18.260,62.0844
18.270,67.0782
18.280,67.5054
18.290,62.6523
18.300,59.5421
18.310,60.6100
18.320,67.7929
18.330,64.1804
18.340,62.7980
18.350,61.0451
18.360,65.8269
18.370,62.0452
18.380,62.0934
18.390,57.2960
18.400,61.6363
18.410,67.5161
18.420,65.4945
18.430,61.8637
18.440,69.9064
18.450,70.0962
18.460,66.6597
18.470,69.4589
18.480,60.9223
18.490,68.5411
18.500,67.4704
18.510,65.6240
18.520,59.9975
18.530,68.5721
18.540,70.6498
18.550,71.8812
18.560,63.6066
18.570,71.2743
18.580,68.2981
18.590,70.4830
18.600,68.3049
18.610,62.6550
18.620,69.2767
18.630,64.9555
18.640,67.7190
18.650,63.6906
18.660,67.4070
18.670,75.0197
18.680,70.8628
18.690,73.7281
18.700,72.7602
18.710,64.6420
18.720,66.5394
18.730,76.3120
18.740,73.9399
18.750,64.1299
18.760,74.3582
18.770,69.1875
18.780,65.4707
18.790,69.2551
18.800,68.8583
18.810,76.8192
18.820,74.2944
18.830,74.4718
18.840,76.7648
18.850,71.1966
18.860,68.8253
18.870,70.8330
18.880,74.4708
18.890,71.8865
18.900,77.2970
18.910,70.0501
18.920,75.0891
18.930,67.2624
18.940,65.6083
18.950,73.3935
18.960,76.9942
18.970,67.7171
18.980,67.6008
18.990,75.6098
19.000,77.6898
19.010,74.1053
19.020,66.7353
19.030,77.1473
19.040,75.3226
19.050,66.4338
19.060,73.6447
19.070,68.6101
19.080,76.2258
19.090,74.3866
19.100,66.4673
19.110,73.6857
19.120,65.1590
19.130,70.8682
19.140,68.1815
19.150,74.1298
19.160,74.5955
19.170,73.1142
19.180,75.4903
19.190,62.6618
19.200,72.8703
19.210,66.3146
19.220,73.1010
19.230,70.1630
19.240,68.8770
19.250,68.7702
19.260,71.0792
19.270,69.2290
19.280,70.2085
19.290,62.7357
19.300,69.6191
19.310,65.1844
19.320,66.6653
19.330,63.4338
19.340,61.3693
19.350,71.1323
19.360,66.9715
19.370,69.5856
19.380,60.6757
19.390,59.3577
19.400,68.4225
19.410,65.9632
19.420,59.7269
19.430,63.8178
19.440,65.8772
19.450,63.0908
19.460,66.5687
19.470,67.0826
19.480,61.3364
19.490,61.1552
19.500,66.2159
19.510,65.3410
19.520,64.1392
19.530,61.1387
19.540,56.5537
19.550,67.3570
19.560,66.0729
19.570,67.0453
19.580,64.5925
19.590,61.9990
19.600,55.2835
19.610,56.7321
19.620,64.5601
19.630,63.8512
19.640,61.4445
19.650,61.6360
19.660,57.0227
19.670,63.5387
19.680,62.2068
19.690,57.0646
19.700,58.3320
19.710,66.6761
19.720,61.3039
19.730,61.2346
19.740,62.7197
19.750,61.8139
19.760,65.0247
19.770,64.2182
19.780,61.3293
19.790,56.7975
19.800,64.7783
19.810,69.3316
19.820,69.2775
19.830,59.9853
19.840,57.5443
19.850,64.2703
19.860,62.2917
19.870,58.4137
19.880,61.2032
19.890,58.6763
19.900,70.6441
19.910,68.6304
19.920,58.7525
19.930,63.7232
19.940,60.8442
19.950,62.2240
19.960,63.9596
19.970,64.9833
19.980,69.5549
19.990,70.3229
20.000,61.7571
20.010,60.9641
20.020,69.6259
20.030,69.1479
20.040,66.2400
20.050,71.5255
20.060,68.0045
20.070,71.4720
20.080,63.2556
20.090,68.6891
20.100,63.0275
20.110,64.8998
20.120,74.5278
20.130,71.3885
20.140,72.7837
20.150,66.8869
20.160,70.6882
20.170,73.4897
20.180,66.1107
20.190,66.0015
20.200,76.1783
20.210,68.4249
20.220,66.7430
20.230,76.9394
20.240,65.9637
20.250,67.0447
20.260,68.6659
20.270,77.9263
20.280,70.3177
20.290,72.1868
20.300,70.3808
20.310,72.4659
20.320,66.3138
20.330,69.1321
20.340,69.2862
20.350,77.4390
20.360,73.0981
20.370,69.7492
20.380,69.2434
20.390,65.9414
20.400,76.3672
20.410,65.5662
20.420,71.5317
20.430,70.7710
20.440,76.7034
20.450,72.1357
20.460,74.3196
20.470,74.3840
20.480,65.9785
20.490,75.8499
20.500,71.4115
20.510,74.1131
20.520,65.3462
20.530,68.6766
20.540,73.3636
20.550,75.9039
20.560,72.1007
20.570,70.3566
20.580,64.9628
20.590,66.4818
20.600,66.1091
20.610,73.9357
20.620,72.8828
20.630,74.0946
20.640,71.5974
20.650,63.0970
20.660,72.8840
20.670,69.7098
20.680,72.1388
20.690,64.2276
20.700,68.7082
20.710,70.1417
20.720,71.9447
20.730,71.3187
20.740,65.1942
20.750,66.5796
20.760,71.3644
20.770,70.8046
20.780,63.3198
20.790,62.4809
20.800,68.5394
20.810,69.8963
20.820,60.4804
20.830,67.3015
20.840,59.1486
20.850,67.1301
20.860,61.2420
20.870,68.3423
20.880,61.6651
20.890,62.3444
20.900,69.4736
20.910,56.9453
20.920,66.8335
20.930,57.4238
20.940,63.2176
20.950,58.1038
20.960,57.8671
20.970,62.7666
20.980,64.5840
20.990,64.8108
21.000,61.6294
21.010,62.6210
21.020,66.9244
21.030,67.5962
21.040,59.8005
21.050,67.3420
21.060,66.2271
21.070,57.9894
21.080,55.4380
21.090,60.3998
21.100,55.7733
21.110,62.6902
21.120,65.2885
21.130,59.4761
21.140,59.7327
21.150,62.7647
21.160,68.3724
21.170,64.5613
21.180,67.3066
21.190,66.3333
21.200,57.6711
21.210,57.9256
21.220,63.6190
21.230,68.9128
21.240,57.5873
21.250,66.2722
21.260,67.6288
21.270,59.9181
21.280,61.7118
21.290,66.3638
21.300,61.5590
21.310,60.2002
21.320,60.7131
21.330,66.3334
21.340,64.9160
21.350,64.7404
21.360,65.1799
21.370,66.6820
21.380,68.3734
21.390,67.2400
21.400,71.0689
21.410,70.8101
21.420,66.2735
21.430,64.2944
21.440,71.9444
21.450,68.6130
21.460,64.6467
21.470,66.6866
21.480,70.7709
21.490,71.2829
21.500,70.1550
21.510,64.3773
21.520,63.1718
21.530,73.8178
21.540,70.0021
21.550,66.9229
21.560,71.8231
21.570,73.4096
21.580,64.9933
21.590,72.9818
21.600,73.8786
21.610,73.7951
21.620,71.9791
21.630,66.0718
21.640,75.2330
21.650,67.4381
21.660,66.4055
21.670,77.5063
21.680,69.2117
21.690,74.2369
21.700,77.7564
21.710,68.5102
21.720,76.0480
21.730,73.6066
21.740,75.6592
21.750,71.5680
21.760,77.8474
21.770,73.0582
21.780,71.8879
21.790,76.5104
21.800,66.4207
21.810,76.4665
21.820,70.0208
21.830,75.3852
21.840,71.4252
21.850,68.6062
21.860,67.3122
21.870,75.7110
21.880,65.9019
21.890,71.9531
21.900,76.7175
21.910,65.1078
21.920,68.3103
21.930,72.8325
21.940,67.7851
21.950,70.4235
21.960,72.1297
21.970,73.5471
21.980,72.0809
21.990,69.9749
22.000,73.5462
22.010,66.6810
22.020,72.3440
22.030,69.2657
22.040,64.4233
22.050,69.1671
22.060,65.2628
22.070,63.0070
22.080,71.7583
22.090,69.4498
22.100,63.5437
22.110,62.4511
22.120,72.6953
22.130,61.0329
22.140,67.6436
22.150,72.5348
22.160,71.8286
22.170,70.1089
22.180,59.8934
22.190,64.3827
22.200,68.1804
22.210,71.4483
22.220,60.0461
22.230,60.6593
22.240,67.0443
22.250,60.3747
22.260,59.4187
22.270,64.9415
22.280,68.4549
22.290,57.6603
22.300,63.3690
22.310,70.0637
22.320,69.1207
22.330,65.9018
22.340,63.2786
22.350,65.7628
22.360,56.7196
22.370,59.4906
22.380,60.0193
22.390,58.4630
22.400,65.3239
22.410,66.4940
22.420,62.8317
22.430,58.2029
22.440,66.4905
22.450,64.9278
22.460,67.4623
22.470,66.1935
22.480,61.1800
22.490,57.4415
22.500,64.0979
22.510,56.0040
22.520,58.0482
22.530,66.8544
22.540,60.0972
22.550,59.8757
22.560,66.7973
22.570,61.0944
22.580,56.6144
22.590,59.9933
22.600,66.4526
22.610,66.6998
22.620,64.0077
22.630,63.2269
22.640,60.2577
22.650,62.5109
22.660,60.0172
22.670,66.4264
22.680,58.7753
22.690,67.8375
22.700,68.0667
22.710,65.2765
22.720,59.7436
22.730,66.4387
22.740,65.3588
22.750,66.8366
22.760,59.1997
22.770,68.5920
22.780,70.3300
22.790,59.7063
22.800,64.7609
22.810,61.0703
22.820,61.1753
22.830,64.1712
22.840,68.7987
22.850,62.1823
22.860,62.3850
22.870,66.3119
22.880,69.7393
22.890,64.5970
22.900,64.9642
22.910,74.2687
22.920,74.7571
22.930,66.5114
22.940,66.3301
22.950,63.3572
22.960,65.4619
22.970,66.3662
22.980,71.3122
22.990,67.5653
23.000,67.8834
23.010,74.5519
23.020,66.9120
23.030,74.4340
23.040,77.1786
23.050,73.2742
23.060,69.8756
23.070,72.5673
23.080,66.2093
23.090,66.8756
23.100,70.7681
23.110,70.2033
23.120,67.3050
23.130,70.7138
23.140,71.7749
23.150,77.3352
23.160,76.9556
23.170,73.8348
23.180,71.9801
23.190,70.3359
23.200,68.0242
23.210,67.1960
23.220,74.4972
23.230,70.3064
23.240,71.6281
23.250,68.6375
23.260,74.4032
23.270,67.2199
23.280,68.3087
23.290,66.3027
23.300,68.2625
23.310,74.7407
23.320,70.7040
23.330,75.9085
23.340,69.4321
23.350,67.7061
23.360,71.9597
23.370,70.9288
23.380,70.5812
23.390,76.6016
23.400,71.5938
23.410,68.0571
23.420,69.0058
23.430,64.4271
23.440,76.2707
23.450,74.1248
23.460,66.3884
23.470,65.7827
23.480,75.5628
23.490,71.2263
23.500,69.5458
23.510,65.1209
23.520,62.7328
23.530,66.9159
23.540,67.5968
23.550,68.4160
23.560,69.7861
23.570,65.4222
23.580,63.9385
23.590,61.8536
23.600,65.2357
23.610,65.9754
23.620,67.8928
23.630,61.3434
23.640,59.6890
23.650,66.3060
23.660,59.9607
23.670,67.6526
23.680,59.9276
23.690,69.8962
23.700,70.5552
23.710,61.5470
23.720,69.2027
23.730,60.0639
23.740,65.5698
23.750,64.9617
23.760,57.7766
23.770,57.3763
23.780,65.1470
23.790,57.9694
23.800,66.3448
23.810,56.4968
23.820,64.1877
23.830,63.5079
23.840,57.6642
23.850,62.2001
23.860,57.8749
23.870,60.8766
23.880,58.1916
23.890,66.0240
23.900,63.1440
23.910,57.5223
23.920,59.9194
23.930,60.5389
23.940,58.9612
23.950,56.2673
23.960,57.6193
23.970,56.3280
23.980,67.9899
23.990,61.2492
24.000,61.2463
24.010,56.5109
24.020,68.5687
24.030,65.0094
24.040,58.5863
24.050,56.5355
24.060,64.2436
24.070,62.0589
24.080,59.6695
24.090,58.6299
24.100,60.8024
24.110,59.3571
24.120,70.0387
24.130,64.3162
24.140,64.3570
24.150,64.4101
24.160,67.1991
24.170,59.5129
24.180,61.6090
24.190,68.1924
24.200,63.4760
24.210,61.1219
24.220,71.9239
24.230,59.7223
24.240,62.0987
24.250,68.0536
24.260,68.0838
24.270,70.1876
24.280,63.5979
24.290,68.5990
24.300,65.5939
24.310,68.7564
24.320,65.9588
24.330,71.8643
24.340,69.2826
24.350,70.6112
24.360,68.7954
24.370,66.3254
24.380,68.2827
24.390,73.1925
24.400,66.5811
24.410,64.6971
24.420,67.5855
24.430,74.0006
24.440,64.8865
24.450,69.8049
24.460,67.7951
24.470,76.1100
24.480,75.2365
24.490,73.9458
24.500,76.3422
24.510,77.5232
24.520,75.5314
24.530,71.0926
24.540,78.2448
24.550,76.6663
24.560,71.0386
24.570,75.9778
24.580,73.3786
24.590,74.6129
24.600,67.0548
24.610,72.7092
24.620,78.8458
24.630,78.2441
24.640,75.9978
24.650,66.9918
24.660,71.5901
24.670,73.9305
24.680,73.7813
24.690,76.2629
24.700,75.5673
24.710,75.2064
24.720,65.8267
24.730,69.4302
24.740,65.7919
24.750,68.7798
24.760,67.1884
24.770,71.8588
24.780,69.5413
24.790,75.5676
24.800,70.3984
24.810,67.1560
24.820,72.8464
24.830,65.7162
24.840,65.7979
24.850,76.5136
24.860,74.0157
24.870,71.0900
24.880,74.0022
24.890,68.5778
24.900,72.6177
24.910,64.4854
24.920,70.5359
24.930,63.1104
24.940,62.8208
24.950,66.9632
24.960,72.3178
24.970,72.1967
24.980,65.1876
24.990,69.2948
25.000,73.6904
25.010,66.5027
25.020,68.3543
25.030,72.9316
25.040,64.1671
25.050,65.3781
25.060,71.4025
25.070,63.8631
25.080,67.2254
25.090,61.9674
25.100,68.3615
25.110,64.0682
25.120,58.7765
25.130,66.9762
25.140,67.9837
25.150,60.7653
25.160,63.9298
25.170,58.0050
25.180,60.9148
25.190,63.5839
25.200,62.6758
25.210,58.3663
25.220,61.0811
25.230,62.3045
25.240,66.6146
25.250,64.1835
25.260,59.2063
25.270,67.3151
25.280,61.5955
25.290,64.7166
25.300,65.6980
25.310,58.0483
25.320,58.6111
25.330,68.4778
25.340,58.4069
25.350,60.1067
25.360,66.6786
25.370,58.1065
25.380,63.7646
25.390,57.4387
25.400,63.2308
25.410,58.0701
25.420,56.7727
25.430,62.2721
25.440,57.1531
25.450,57.5894
25.460,56.4708
25.470,64.0175
25.480,62.6309
25.490,66.0152
25.500,67.1358
25.510,67.7779
25.520,61.3293
25.530,58.7227
25.540,63.6748
25.550,68.1928
25.560,66.7090
25.570,66.1417
25.580,58.3487
25.590,66.3126
25.600,64.9666
25.610,61.0706
25.620,68.8111
25.630,68.9409
25.640,70.4395
25.650,62.1564
25.660,67.3646
25.670,61.4702
25.680,68.6620
25.690,64.5688
25.700,64.7600
25.710,64.7363
25.720,66.2651
25.730,63.1973
25.740,62.9849
25.750,74.7081
25.760,62.3817
25.770,67.0547
25.780,71.1913
25.790,64.8376
25.800,66.9557
25.810,71.2333
25.820,63.6792
25.830,76.1239
25.840,66.8497
25.850,73.1513
25.860,70.8983
25.870,74.7104
25.880,71.9277
25.890,67.9878
25.900,71.4797
25.910,69.0499
25.920,67.2025
25.930,66.9392
25.940,68.7318
25.950,69.0470
25.960,70.1592
25.970,69.7728
25.980,73.2791
25.990,71.6175
26.000,77.1901
26.010,78.8393
26.020,77.7670
26.030,69.0674
26.040,78.2339
26.050,77.7983
26.060,78.3749
26.070,68.3156
26.080,72.7905
26.090,72.6343
26.100,76.8842
26.110,78.6307
26.120,67.2421
26.130,78.8592
26.140,75.7013
26.150,68.8447
26.160,76.1914
26.170,76.3110
26.180,77.3397
26.190,67.6814
26.200,77.5420
26.210,74.7331
26.220,71.6611
26.230,67.3854
26.240,76.1860
26.250,72.0765
26.260,65.3706
26.270,76.9609
26.280,67.7496
26.290,70.2924
26.300,69.0680
26.310,70.0275
26.320,73.7656
26.330,66.1097
26.340,73.0708
26.350,69.4767
26.360,69.2318
26.370,73.0018
26.380,65.3717
26.390,70.3304
26.400,62.5767
26.410,72.3937
26.420,61.5503
26.430,61.6628
26.440,68.1342
26.450,68.8017
26.460,65.9759
26.470,64.6302
26.480,66.8272
26.490,70.1332
26.500,65.7870
26.510,70.2540
26.520,63.3793
26.530,63.4064
26.540,60.4591
26.550,68.5243
26.560,59.2763
26.570,60.5457
26.580,69.0891
26.590,64.4690
26.600,69.9559
26.610,58.0452
26.620,66.3608
26.630,61.2758
26.640,63.0984
26.650,69.7271
26.660,68.0751
26.670,57.9411
26.680,59.5454
26.690,64.8073
26.700,58.3415
26.710,64.4444
26.720,64.3067
26.730,58.1138
26.740,61.6428
26.750,60.6435
26.760,63.3951
26.770,56.5194
26.780,60.5629
26.790,57.6644
26.800,67.5536
26.810,56.7093
26.820,58.8286
26.830,64.3943
26.840,67.0863
26.850,56.3686
26.860,67.4781
26.870,57.3444
26.880,68.5710
26.890,67.2371
26.900,63.2269
26.910,68.6192
26.920,67.2179
26.930,63.7409
26.940,57.7048
26.950,68.3604
26.960,67.2605
26.970,66.2423
26.980,58.1334
26.990,70.4784
27.000,70.1358
27.010,63.4904
27.020,61.8692
27.030,64.7960
27.040,69.4901
27.050,63.0821
27.060,65.5149
27.070,59.6904
27.080,70.9731
27.090,60.3446
27.100,69.9400
27.110,65.9280
27.120,65.9526
27.130,67.5429
27.140,71.7974
27.150,67.2550
27.160,68.3516
27.170,63.8568
27.180,71.1564
27.190,70.2450
27.200,73.4445
27.210,72.5376
27.220,72.0593
27.230,67.4938
27.240,68.6465
27.250,66.6074
27.260,67.2179
27.270,67.8221
27.280,65.1465
27.290,72.7881
27.300,74.5536
27.310,77.1783
27.320,66.3303
27.330,68.5895
27.340,75.4418
27.350,69.1743
27.360,70.0402
27.370,69.4451
27.380,74.7465
27.390,75.7280
27.400,72.1403
27.410,71.5755
27.420,67.2521
27.430,74.0007
27.440,67.6422
27.450,71.3153
27.460,76.7653
27.470,70.4346
27.480,75.4616
27.490,73.1692
27.500,77.8612
27.510,69.5320
27.520,72.7094
27.530,77.6417
27.540,67.6735
27.550,76.3573
27.560,71.1951
27.570,67.3688
27.580,67.0755
27.590,77.3750
27.600,70.8333
27.610,77.4482
27.620,77.2289
27.630,74.7550
27.640,73.3219
27.650,75.0269
27.660,69.7659
27.670,72.5500
27.680,67.5930
27.690,72.7639
27.700,72.8184
27.710,66.0017
27.720,70.1378
27.730,65.0988
27.740,71.8081
27.750,70.6159
27.760,70.2030
27.770,69.0585
27.780,71.6284
27.790,72.7883
27.800,67.0604
27.810,74.8463
27.820,68.3015
27.830,62.6034
27.840,73.0717
27.850,63.4749
27.860,71.5376
27.870,64.9000
27.880,64.6246
27.890,62.0280
27.900,66.1935
27.910,61.6757
27.920,72.4591
27.930,69.0001
27.940,62.6509
27.950,64.3710
27.960,60.4291
27.970,60.3984
27.980,59.0104
27.990,69.2549
28.000,58.2744
28.010,70.4881
28.020,68.2607
28.030,64.0503
28.040,62.6321
28.050,66.6490
28.060,59.6922
28.070,68.4189
28.080,60.8865
28.090,59.7987
28.100,58.1324
28.110,60.8151
28.120,57.7856
28.130,67.3497
28.140,57.5444
28.150,56.9923
28.160,60.2278
28.170,64.0565
28.180,66.4921
28.190,65.6363
28.200,64.4761
28.210,66.9312
28.220,58.1633
28.230,59.7172
28.240,67.1232
28.250,67.0916
28.260,67.5365
28.270,57.7920
28.280,58.4269
28.290,65.5188
28.300,56.6489
28.310,68.7730
28.320,59.3345
28.330,57.9599
28.340,65.5416
28.350,69.0320
28.360,68.8961
28.370,59.6092
28.380,63.6257
28.390,67.7127
28.400,66.8575
28.410,67.6606
28.420,66.4663
28.430,70.9098
28.440,61.2728
28.450,60.6477
28.460,67.2560
28.470,67.6475
28.480,65.6765
28.490,69.6719
28.500,66.2507
28.510,61.2023
28.520,62.4820
28.530,70.4815
28.540,72.1801
28.550,73.2432
28.560,61.7671
28.570,69.0258
28.580,62.2797
28.590,65.9757
28.600,65.7960
28.610,66.2955
28.620,70.0549
28.630,64.1293
28.640,66.2916
28.650,75.3034
28.660,74.2335
28.670,71.2626
28.680,65.0603
28.690,71.2771
28.700,75.0204
28.710,74.2218
28.720,76.7756
28.730,72.9776
28.740,72.2915
28.750,70.1749
28.760,66.2828
28.770,77.2388
28.780,76.9405
28.790,72.5783
28.800,71.3274
28.810,68.5722
28.820,77.2818
28.830,74.0801
28.840,66.2439
28.850,66.5964
28.860,77.9505
28.870,76.0743
28.880,73.1618
28.890,67.1943
28.900,72.8880
28.910,76.5985
28.920,76.9328
28.930,77.0328
28.940,74.7609
28.950,74.0986
28.960,77.0470
28.970,77.2606
28.980,75.5139
28.990,75.8006
29.000,75.9422
29.010,68.4367
29.020,72.8431
29.030,78.1699
29.040,66.5874
29.050,67.0568
29.060,70.2785
29.070,77.8740
29.080,77.4787
29.090,74.9257
29.100,65.8601
29.110,66.6273
29.120,64.9539
29.130,75.6302
29.140,74.3156
29.150,69.0018
29.160,74.3053
29.170,69.5759
29.180,69.8300
29.190,76.0735
29.200,69.5320
29.210,72.5385
29.220,65.3372
29.230,71.3180
29.240,70.5431
29.250,65.2150
29.260,72.9838
29.270,62.9894
29.280,63.1622
29.290,73.9454
29.300,70.5478
29.310,73.7022
29.320,72.7267
29.330,72.0137
29.340,61.3585
29.350,60.7388
29.360,71.1442
29.370,61.5415
29.380,62.5657
29.390,69.3203
29.400,66.9463
29.410,58.9032
29.420,62.7715
29.430,61.7244
29.440,63.4266
29.450,61.8530
29.460,67.6315
29.470,65.3471
29.480,70.0896
29.490,69.4408
29.500,68.1429
29.510,58.0786
29.520,60.9044
29.530,57.2617
29.540,68.4870
29.550,67.4571
29.560,61.6030
29.570,57.7025
29.580,68.5425
29.590,57.5004
29.600,60.0888
29.610,67.9618
29.620,57.1208
29.630,56.8185
29.640,57.3353
29.650,60.1603
29.660,64.2825
29.670,63.5331
29.680,66.6054
29.690,61.4307
29.700,59.2088
29.710,58.2309
29.720,64.9420
29.730,57.5310
29.740,67.7790
29.750,67.5683
29.760,62.7595
29.770,65.6756
29.780,65.5175
29.790,70.2287
29.800,70.4407
29.810,61.8525
29.820,69.1736
29.830,67.6204
29.840,61.3639
29.850,67.7376
29.860,59.9070
29.870,68.8739
29.880,67.3153
29.890,63.1875
29.900,70.4174
29.910,66.0410
29.920,72.4694
29.930,71.8761
29.940,72.9678
29.950,63.2053
29.960,69.5748
29.970,65.5904
29.980,62.7459
29.990,61.6733
30.000,64.9403
30.010,72.4570
30.020,66.6438
30.030,72.1977
30.040,69.4509
30.050,69.3646
30.060,75.3583
30.070,77.3134
30.080,77.4569
30.090,71.5118
30.100,73.0221
30.110,83.8447
30.120,83.1724
30.130,82.0440
30.140,81.1031
30.150,80.8345
30.160,90.1666
30.170,87.2596
30.180,84.9777
30.190,91.7767
30.200,86.0049
30.210,83.0170
30.220,95.3668
30.230,86.9232
30.240,87.5718
30.250,90.0959
30.260,92.2533
30.270,93.0833
30.280,94.1650
30.290,101.7273
30.300,93.6971
30.310,106.0698
30.320,105.2589
30.330,103.1286
30.340,105.9320
30.350,97.7954
30.360,103.5709
30.370,107.7710
30.380,101.8357
30.390,104.9877
30.400,110.8865
30.410,109.3405
30.420,104.9364
30.430,111.6731
30.440,113.1135
30.450,116.8497
30.460,120.3369
30.470,117.6254
30.480,114.8865
30.490,123.2730
30.500,116.0404
30.510,118.2587
30.520,123.9004
30.530,121.1933
30.540,119.5069
30.550,119.7526
30.560,122.6340
30.570,126.9438
30.580,128.2951
30.590,127.6374
30.600,129.4041
30.610,128.3983
30.620,130.4167
30.630,128.0591
30.640,128.0659
30.650,137.0033
30.660,141.1952
30.670,131.5011
30.680,142.7757
30.690,139.6055
30.700,138.2380
30.710,141.3414
30.720,141.6814
30.730,142.2870
30.740,148.9636
30.750,149.7026
30.760,151.3195
30.770,150.2729
30.780,151.3831
30.790,146.2013
30.800,155.2011
30.810,147.2683
30.820,154.4154
30.830,156.4790
30.840,152.2299
30.850,156.6741
30.860,157.4601
30.870,162.0515
30.880,159.7560
30.890,152.6696
30.900,162.4729
30.910,164.5704
30.920,160.9525
30.930,162.4127
30.940,165.9713
30.950,164.7957
30.960,161.1770
30.970,165.2471
30.980,161.9538
30.990,163.1005
31.000,171.3593
31.010,169.9204
31.020,164.2671
31.030,168.4707
31.040,168.7486
31.050,164.7868
31.060,176.2996
31.070,174.9170
31.080,167.8773
31.090,165.9190
31.100,164.5470
31.110,175.6356
31.120,174.5303
31.130,171.5231
31.140,164.4850
31.150,176.3867
31.160,171.6948
31.170,171.0586
31.180,175.9457
31.190,168.5445
31.200,173.7567
31.210,167.2681
31.220,167.1817
31.230,172.8279
31.240,175.1661
31.250,173.5824
31.260,174.7345
31.270,174.4397
31.280,170.1783
31.290,170.8584
31.300,168.4822
31.310,170.7579
31.320,172.9586
31.330,166.9004
31.340,172.4322
31.350,176.1232
31.360,168.6146
31.370,175.1990
31.380,165.7044
31.390,164.8667
31.400,174.6012
31.410,172.5053
31.420,167.6248
31.430,176.1942
31.440,176.4006
31.450,171.0283
31.460,173.9356
31.470,167.8304
31.480,173.0078
31.490,174.8474
31.500,176.4708
31.510,166.7452
31.520,166.5178
31.530,164.8576
31.540,170.0318
31.550,163.9321
31.560,172.8921
31.570,175.0922
31.580,173.2497
31.590,164.3174
31.600,176.4403
31.610,174.3483
31.620,174.7506
31.630,164.0437
31.640,164.8576
31.650,175.5069
31.660,169.2410
31.670,171.1461
31.680,167.0552
31.690,170.4056
31.700,176.5829
31.710,170.0594
31.720,167.1524
31.730,165.3765
31.740,164.5844
31.750,168.6852
31.760,167.6130
31.770,164.3367
31.780,173.9117
31.790,170.9293
31.800,174.2249
31.810,171.7670
31.820,172.4222
31.830,173.5937
31.840,175.6348
31.850,175.2453
31.860,171.8341
31.870,172.8061
31.880,165.3964
31.890,170.3994
31.900,170.9481
31.910,166.7099
31.920,166.1099
31.930,172.3632
31.940,165.9282
31.950,172.9892
31.960,168.4890
31.970,170.2823
31.980,167.3474
31.990,167.9537
32.000,74.0114
32.010,68.9502
32.020,75.4429
32.030,66.6995
32.040,69.5680
32.050,74.9995
32.060,70.6373
32.070,72.1852
32.080,70.5346
32.090,68.7490
32.100,71.9653
32.110,63.1629
32.120,62.7623
32.130,68.5245
32.140,67.4757
32.150,66.2277
32.160,66.1809
32.170,70.7987
32.180,66.0231
32.190,61.8288
32.200,63.7579
32.210,66.7068
32.220,63.1852
32.230,63.3050
32.240,62.8213
32.250,61.8704
32.260,70.1522
32.270,63.5594
32.280,66.6201
32.290,68.6023
32.300,59.8656
32.310,68.1797
32.320,59.5746
32.330,68.1713
32.340,60.3555
32.350,62.0692
32.360,61.0459
32.370,64.5518
32.380,62.0020
32.390,66.6121
32.400,66.9422
32.410,62.4689
32.420,60.9291
32.430,66.9413
32.440,60.9496
32.450,66.6414
32.460,59.3780
32.470,57.0761
32.480,67.9242
32.490,61.2319
32.500,69.4122
32.510,69.0059
32.520,58.4483
32.530,67.9353
32.540,59.6477
32.550,57.6335
32.560,63.1226
32.570,57.5203
32.580,63.6691
32.590,66.3004
32.600,59.6276
32.610,58.6547
32.620,65.0388
32.630,61.9377
32.640,68.7769
32.650,61.9122
32.660,58.5925
32.670,67.2152
32.680,63.6577
32.690,68.1045
32.700,68.2233
32.710,67.0964
32.720,65.5748
32.730,65.3738
32.740,62.6280
32.750,68.1814
32.760,69.7397
32.770,60.0365
32.780,64.3839
32.790,62.0107
32.800,67.9195
32.810,69.0529
32.820,73.2466
32.830,68.4504
32.840,68.4063
32.850,65.1756
32.860,64.4751
32.870,71.3394
32.880,71.4557
32.890,74.7108
32.900,72.7570
32.910,73.0374
32.920,68.1594
32.930,67.8795
32.940,66.4867
32.950,75.7606
32.960,69.7424
32.970,76.3288
32.980,69.2854
32.990,76.5817
33.000,66.1940
33.010,75.2688
33.020,68.4887
33.030,77.3161
33.040,66.8456
33.050,72.6497
33.060,70.7990
33.070,77.4245
33.080,73.1253
33.090,67.6419
33.100,69.4699
33.110,71.4456
33.120,74.7659
33.130,76.1570
33.140,70.9121
33.150,76.3709
33.160,79.3479
33.170,78.7397
33.180,70.9494
33.190,67.4566
33.200,68.8026
33.210,72.3614
33.220,71.2734
33.230,76.2060
33.240,74.8992
33.250,75.1293
33.260,73.3714
33.270,69.8901
33.280,67.0103
33.290,68.4761
33.300,75.8522
33.310,78.8977
33.320,72.7207
33.330,74.6219
33.340,76.7315
33.350,77.7007
33.360,69.4782
33.370,73.0732
33.380,76.2945
33.390,70.5681
33.400,72.5750
33.410,71.9303
33.420,72.9719
33.430,74.5554
33.440,71.5160
33.450,68.7699
33.460,73.3405
33.470,64.8499
33.480,76.2547
33.490,68.3166
33.500,73.0219
33.510,63.4523
33.520,72.0120
33.530,67.5285
33.540,66.0925
33.550,66.6351
33.560,64.6764
33.570,67.6197
33.580,74.5715
33.590,61.7739
33.600,71.2184
33.610,70.9206
33.620,68.9429
33.630,73.2901
33.640,72.8872
33.650,65.8707
33.660,67.8790
33.670,69.9888
33.680,64.8532
33.690,62.6696
33.700,69.0799
33.710,68.1770
33.720,68.1721
33.730,59.8644
33.740,66.6573
33.750,61.6833
33.760,69.8163
33.770,66.6938
33.780,64.3359
33.790,65.3620
33.800,62.5750
33.810,69.8032
33.820,59.4917
33.830,69.3168
33.840,63.0637
33.850,59.0374
33.860,62.8749
33.870,65.5295
33.880,57.1300
33.890,66.5296
33.900,56.9744
33.910,64.2621
33.920,63.9993
33.930,68.3340
33.940,67.8771
33.950,62.1566
33.960,64.5300
33.970,58.9069
33.980,58.0895
33.990,63.6735
34.000,67.3020
34.010,60.6217
34.020,68.0381
34.030,65.4961
34.040,64.1509
34.050,63.4280
34.060,60.7635
34.070,65.8094
34.080,62.9563
34.090,58.6070
34.100,64.6450
34.110,62.0428
34.120,65.8202
34.130,65.3243
34.140,66.5344
34.150,59.6751
34.160,68.5063
34.170,63.1398
34.180,70.7159
34.190,71.6827
34.200,68.4972
34.210,71.6373
34.220,69.9953
34.230,72.0347
34.240,66.2673
34.250,68.5904
34.260,64.4038
34.270,62.4531
34.280,64.6488
34.290,67.3411
34.300,73.1277
34.310,67.5897
34.320,70.0432
34.330,69.3901
34.340,67.1007
34.350,65.2212
34.360,67.8084
34.370,71.5042
34.380,72.7658
34.390,71.8301
34.400,73.1584
34.410,77.1791
34.420,75.8946
34.430,66.5253
34.440,72.6359
34.450,77.9878
34.460,67.3613
34.470,76.5704
34.480,75.7962
34.490,74.9806
34.500,70.5781
34.510,74.2902
34.520,78.3209
34.530,72.3773
34.540,75.3899
34.550,77.1957
34.560,76.3362
34.570,75.2429
34.580,68.0168
34.590,78.6658
34.600,79.1453
34.610,75.3320
34.620,73.2861
34.630,68.9639
34.640,69.2273
34.650,70.3625
34.660,68.9227
34.670,74.7901
34.680,79.2286
34.690,77.5486
34.700,68.0306
34.710,71.1043
34.720,68.7724
34.730,72.6210
34.740,71.5182
34.750,79.5141
34.760,73.4628
34.770,69.1747
34.780,70.8603
34.790,73.3795
34.800,69.5679
34.810,67.7516
34.820,71.9420
34.830,67.3499
34.840,75.9169
34.850,73.6533
34.860,77.2845
34.870,69.0764
34.880,77.3889
34.890,70.9153
34.900,74.0978
34.910,71.7470
34.920,64.0632
34.930,68.1834
34.940,64.3436
34.950,69.6485
34.960,67.8451
34.970,67.5681
34.980,63.4793
34.990,65.8635
35.000,69.5175
35.010,66.7875
35.020,67.8392
35.030,61.5886
35.040,71.0580
35.050,67.9587
35.060,67.4282
35.070,69.0622
35.080,67.9163
35.090,63.6968
35.100,68.0249
35.110,69.3700
35.120,60.2416
35.130,66.7708
35.140,60.9539
35.150,70.4872
35.160,66.6811
35.170,69.6455
35.180,64.4508
35.190,66.5857
35.200,65.3977
35.210,66.8363
35.220,65.0185
35.230,59.1929
35.240,58.4831
35.250,65.0196
35.260,59.7589
35.270,65.8941
35.280,64.4231
35.290,63.6489
35.300,59.0598
35.310,59.9154
35.320,62.0812
35.330,60.8811
35.340,67.8759
35.350,61.6379
35.360,62.9969
35.370,67.4729
35.380,60.0273
35.390,59.2404
35.400,67.4574
35.410,58.7319
35.420,66.0050
35.430,69.6853
35.440,63.6440
35.450,63.4247
35.460,58.9335
35.470,60.4724
35.480,62.0397
35.490,61.0553
35.500,66.7493
35.510,68.5999
35.520,65.2222
35.530,62.7584
35.540,58.6362
35.550,61.5791
35.560,61.5442
35.570,60.0383
35.580,71.9156
35.590,72.2918
35.600,67.6964
35.610,61.4940
35.620,66.0985
35.630,63.3544
35.640,61.2995
35.650,65.5803
35.660,71.3883
35.670,63.8911
35.680,62.4208
35.690,63.0473
35.700,64.2979
35.710,67.7556
35.720,64.5323
35.730,62.8653
35.740,69.7490
35.750,63.2887
35.760,72.1222
35.770,71.0078
35.780,63.7469
35.790,73.7978
35.800,71.7927
35.810,66.4382
35.820,75.8862
35.830,71.4393
35.840,77.4875
35.850,65.6762
35.860,77.6182
35.870,77.1726
35.880,66.6698
35.890,74.2124
35.900,77.9415
35.910,70.1029
35.920,67.9584
35.930,78.8142
35.940,71.5304
35.950,71.7523
35.960,70.7101
35.970,70.7868
35.980,75.5874
35.990,70.9848
36.000,76.9433
36.010,75.0897
36.020,70.3300
36.030,71.7746
36.040,73.1144
36.050,78.0196
36.060,78.4138
36.070,71.9237
36.080,77.1790
36.090,78.0200
36.100,79.1103
36.110,75.4102
36.120,76.2506
36.130,72.9605
36.140,69.6015
36.150,76.5359
36.160,74.1269
36.170,69.2815
36.180,68.6025
36.190,66.8707
36.200,77.7375
36.210,67.2100
36.220,76.2573
36.230,66.5587
36.240,78.1813
36.250,68.6490
36.260,66.7380
36.270,70.4343
36.280,76.6275
36.290,77.2646
36.300,70.8385
36.310,77.6255
36.320,73.1661
36.330,65.7879
36.340,69.7539
36.350,71.2832
36.360,64.4194
36.370,73.9809
36.380,69.1887
36.390,66.3190
36.400,66.2030
36.410,69.5632
36.420,71.1615
36.430,68.0982
36.440,72.3265
36.450,62.0401
36.460,68.9283
36.470,61.4873
36.480,71.8568
36.490,68.2796
36.500,64.7105
36.510,62.1798
36.520,62.1015
36.530,63.4094
36.540,65.3824
36.550,64.6821
36.560,72.3321
36.570,62.3885
36.580,59.4280
36.590,68.0901
36.600,64.5577
36.610,61.3434
36.620,69.4330
36.630,63.8059
36.640,59.8928
36.650,62.8045
36.660,69.6379
36.670,68.4447
36.680,66.4372
36.690,61.4815
36.700,62.9721
36.710,69.8087
36.720,61.8762
36.730,61.8130
36.740,62.5013
36.750,62.1972
36.760,64.7095
36.770,68.0507
36.780,64.7075
36.790,66.3607
36.800,61.4100
36.810,67.5260
36.820,57.9523
36.830,64.0714
36.840,60.4511
36.850,65.5962
36.860,62.6392
36.870,64.9561
36.880,69.3534
36.890,58.9332
36.900,66.5500
36.910,69.7016
36.920,60.0805
36.930,67.6316
36.940,60.2526
36.950,66.7516
36.960,61.0858
36.970,59.3168
36.980,67.7094
36.990,69.6613
37.000,65.8231
37.010,69.2589
37.020,66.4557
37.030,60.3236
37.040,67.3234
37.050,64.4018
37.060,70.6487
37.070,73.1905
37.080,73.1399
37.090,71.5995
37.100,64.0518
37.110,64.2376
37.120,71.7701
37.130,74.0113
37.140,63.8074
37.150,63.0262
37.160,62.9109
37.170,67.1409
37.180,68.8034
37.190,75.8877
37.200,64.1248
37.210,69.9194
37.220,65.3915
37.230,71.1640
37.240,70.7306
37.250,70.1545
37.260,64.9250
37.270,75.8375
37.280,76.4614
37.290,66.7935
37.300,68.5930
37.310,66.4801
37.320,74.3933
37.330,72.3743
37.340,78.7453
37.350,77.3161
37.360,68.0100
37.370,71.6643
37.380,72.2878
37.390,72.5258
37.400,77.5046
37.410,72.4711
37.420,69.7913
37.430,78.8756
37.440,73.4917
37.450,72.6167
37.460,74.4218
37.470,70.0719
37.480,70.7279
37.490,70.1285
37.500,78.8302
37.510,75.5113
37.520,79.8920
37.530,74.8065
37.540,70.8556
37.550,69.0015
37.560,70.1448
37.570,80.1617
37.580,71.9825
37.590,67.4604
37.600,74.2687
37.610,68.2065
37.620,69.2576
37.630,73.7580
37.640,73.0792
37.650,77.8715
37.660,72.2221
37.670,77.5497
37.680,74.5182
37.690,69.6941
37.700,65.9512
37.710,76.6127
37.720,75.1208
37.730,65.8894
37.740,65.2683
37.750,72.9815
37.760,66.2555
37.770,75.3268
37.780,69.6787
37.790,75.5032
37.800,64.0758
37.810,63.5194
37.820,69.9914
37.830,73.7188
37.840,75.3111
37.850,67.5604
37.860,68.6147
37.870,67.6383
37.880,73.4777
37.890,70.5382
37.900,66.8410
37.910,66.0416
37.920,68.0087
37.930,71.1546
37.940,72.1805
37.950,70.0910
37.960,68.4188
37.970,69.7055
37.980,70.4831
37.990,62.1437
38.000,67.4588
38.010,71.3180
38.020,70.3105
38.030,61.5379
38.040,69.2989
38.050,64.6867
38.060,63.0579
38.070,63.0019
38.080,67.2292
38.090,66.7510
38.100,65.0800
38.110,60.2602
38.120,57.7480
38.130,59.8516
38.140,59.3917
38.150,58.4121
38.160,61.0307
38.170,64.4707
38.180,64.0654
38.190,64.5561
38.200,67.3797
38.210,60.1327
38.220,67.5051
38.230,69.5330
38.240,68.1057
38.250,65.1044
38.260,66.9667
38.270,70.2694
38.280,59.3163
38.290,57.8459
38.300,66.6673
38.310,63.8529
38.320,68.5129
38.330,63.5731
38.340,64.5239
38.350,69.2883
38.360,69.1973
38.370,68.9727
38.380,66.9269
38.390,70.5894
38.400,59.2106
38.410,66.6671
38.420,59.9803
38.430,63.0723
38.440,68.4487
38.450,68.4034
38.460,63.1655
38.470,64.1073
38.480,63.3275
38.490,68.7887
38.500,60.9465
38.510,70.0537
38.520,74.0874
38.530,70.0054
38.540,67.1265
38.550,65.3020
38.560,65.7380
38.570,72.5539
38.580,73.1742
38.590,63.2052
38.600,71.1778
38.610,76.2706
38.620,74.5873
38.630,76.4812
38.640,75.7533
38.650,64.4633
38.660,69.6660
38.670,74.0399
38.680,69.6864
38.690,70.7050
38.700,77.6258
38.710,76.0150
38.720,70.0087
38.730,69.7292
38.740,66.8500
38.750,67.2983
38.760,72.7397
38.770,77.5019
38.780,73.9905
38.790,76.4891
38.800,72.8422
38.810,74.6445
38.820,78.2740
38.830,75.5701
38.840,73.9503
38.850,68.5931
38.860,70.3429
38.870,73.9028
38.880,75.2756
38.890,70.7844
38.900,71.5334
38.910,74.2798
38.920,71.9140
38.930,73.1884
38.940,76.5827
38.950,74.0317
38.960,77.6160
38.970,75.5448
38.980,69.9995
38.990,72.7794
39.000,73.2491
39.010,76.1332
39.020,70.5902
39.030,67.8807
39.040,76.8454
39.050,78.6349
39.060,75.0169
39.070,78.4941
39.080,74.2881
39.090,68.3227
39.100,68.8862
39.110,70.8142
39.120,77.9139
39.130,74.9569
39.140,72.1326
39.150,67.7750
39.160,68.6967
39.170,71.9212
39.180,72.7937
39.190,72.4541
39.200,75.7785
39.210,70.2690
39.220,72.1826
39.230,75.2746
39.240,65.4249
39.250,73.3538
39.260,74.1229
39.270,64.2876
39.280,74.3971
39.290,70.1794
39.300,62.9073
39.310,67.1011
39.320,73.4258
39.330,67.3500
39.340,71.5266
39.350,66.5070
39.360,61.8885
39.370,61.8724
39.380,63.2978
39.390,63.0801
39.400,65.1289
39.410,60.6081
39.420,66.4444
39.430,66.0124
39.440,72.0935
39.450,67.2915
39.460,62.0983
39.470,64.8556
39.480,61.5174
39.490,70.2770
39.500,59.3089
39.510,68.2402
39.520,59.7885
39.530,69.3186
39.540,61.7904
39.550,58.4036
39.560,62.7427
39.570,65.1689
39.580,62.7372
39.590,64.6758
39.600,65.0813
39.610,60.4379
39.620,64.9458
39.630,66.2820
39.640,60.5024
39.650,65.6927
39.660,64.8477
39.670,63.3792
39.680,61.0563
39.690,58.4069
39.700,66.5520
39.710,68.2895
39.720,66.2621
39.730,66.9743
39.740,64.0868
39.750,58.5803
39.760,60.4680
39.770,58.7729
39.780,66.7202
39.790,62.6537
39.800,59.3152
39.810,65.9470
39.820,64.1007
39.830,71.8595
39.840,62.1725
39.850,63.9887
39.860,60.3889
39.870,67.3111
39.880,70.0251
39.890,62.1797
39.900,67.7843
39.910,67.8396
39.920,66.8671
39.930,73.7086
39.940,64.2125
39.950,71.9008
39.960,71.4598
39.970,65.6658
39.980,73.6585
39.990,72.8302
40.000,75.3915
40.010,75.4776
40.020,70.6781
40.030,66.1503
40.040,66.3868
40.050,65.0095
40.060,67.1996
40.070,74.0176
40.080,70.5487
40.090,70.6487
40.100,65.4914
40.110,72.6453
40.120,70.9001
40.130,73.9405
40.140,66.4962
40.150,78.4076
40.160,70.1309
40.170,74.9557
40.180,67.0135
40.190,75.0181
40.200,70.3140
40.210,78.1793
40.220,73.9722
40.230,79.2371
40.240,78.3575
40.250,77.3213
40.260,69.6019
40.270,69.6742
40.280,72.3644
40.290,68.6285
40.300,69.6768
40.310,68.2932
40.320,73.3668
40.330,68.2631
40.340,71.8685
40.350,68.3816
40.360,72.7140
40.370,70.0452
40.380,74.3629
40.390,71.8104
40.400,75.2097
40.410,77.5175
40.420,73.3517
40.430,68.2578
40.440,78.1315
40.450,71.5855
40.460,75.1579
40.470,74.3143
40.480,76.5074
40.490,79.0804
40.500,67.0323
40.510,76.7381
40.520,71.7710
40.530,71.0142
40.540,69.2050
40.550,73.0908
40.560,66.6692
40.570,77.5574
40.580,74.3043
40.590,68.7362
40.600,71.6897
40.610,70.4261
40.620,76.2482
40.630,67.5821
40.640,73.4983
40.650,65.4132
40.660,68.8478
40.670,74.5223
40.680,67.8949
40.690,63.2646
40.700,68.9749
40.710,65.5019
40.720,73.1155
40.730,66.5972
40.740,65.7136
40.750,62.8184
40.760,71.1470
40.770,61.5761
40.780,70.8833
40.790,73.5474
40.800,70.7176
40.810,64.8635
40.820,67.6236
40.830,65.7424
40.840,63.8559
40.850,69.1817
40.860,66.9292
40.870,70.5355
40.880,65.2341
40.890,61.3495
40.900,59.6420
40.910,71.2679
40.920,63.6175
40.930,64.2540
40.940,70.9795
40.950,70.4827
40.960,58.2205
40.970,59.5125
40.980,58.0690
40.990,66.0240
41.000,62.5378
41.010,60.3284
41.020,60.5245
41.030,58.1840
41.040,70.1180
41.050,58.8103
41.060,60.3225
41.070,62.9003
41.080,70.0337
41.090,59.4177
41.100,67.5449
41.110,64.5138
41.120,66.6641
41.130,62.5729
41.140,67.8174
41.150,58.0004
41.160,69.8233
41.170,69.5822
41.180,60.8137
41.190,66.3731
41.200,69.2329
41.210,67.6852
41.220,71.2084
41.230,62.7584
41.240,63.3651
41.250,71.3789
41.260,63.8696
41.270,66.6201
41.280,60.0672
41.290,72.4882
41.300,60.5070
41.310,65.4904
41.320,73.0188
41.330,70.2974
41.340,65.1216
41.350,66.4823
41.360,65.4897
41.370,63.6352
41.380,65.0860
41.390,62.4528
41.400,65.6812
41.410,64.4804
41.420,62.9202
41.430,69.6423
41.440,69.3151
41.450,66.6451
41.460,74.4414
41.470,64.6170
41.480,68.6183
41.490,74.5640
41.500,73.9109
41.510,65.8423
41.520,73.5433
41.530,76.3154
41.540,66.0081
41.550,70.1411
41.560,69.6913
41.570,68.9218
41.580,69.8783
41.590,68.7598
41.600,67.7372
41.610,68.3570
41.620,73.6497
41.630,76.1014
41.640,68.6815
41.650,69.8759
41.660,73.6963
41.670,78.3321
41.680,79.0716
41.690,77.3105
41.700,80.1341
41.710,77.4446
41.720,74.0605
41.730,68.7772
41.740,70.3337
41.750,70.1416
41.760,68.9142
41.770,69.3699
41.780,80.8087
41.790,74.9144
41.800,68.6760
41.810,78.9628
41.820,72.1962
41.830,79.1243
41.840,75.2308
41.850,78.7742
41.860,69.5225
41.870,79.3332
41.880,70.3629
41.890,74.4369
41.900,75.5608
41.910,70.5522
41.920,69.9123
41.930,75.7742
41.940,78.6259
41.950,71.4482
41.960,77.4466
41.970,72.1726
41.980,71.0873
41.990,76.2624
42.000,75.1083
42.010,67.7256
42.020,76.9670
42.030,77.8803
42.040,70.1533
42.050,66.1093
42.060,76.7786
42.070,67.7504
42.080,69.3847
42.090,76.2114
42.100,76.0107
42.110,65.7530
42.120,75.5585
42.130,70.9967
42.140,74.7550
42.150,69.3334
42.160,66.9356
42.170,64.8126
42.180,70.6872
42.190,71.6565
42.200,73.2098
42.210,69.3793
42.220,61.5750
42.230,68.8558
42.240,63.2772
42.250,62.3030
42.260,63.3986
42.270,69.0782
42.280,60.5845
42.290,65.5621
42.300,62.9127
42.310,70.3203
42.320,59.4205
42.330,63.9592
42.340,63.0975
42.350,60.4796
42.360,67.7373
42.370,70.0951
42.380,58.5793
42.390,58.8019
42.400,59.7645
42.410,64.7295
42.420,67.2847
42.430,68.7800
42.440,58.3311
42.450,68.0885
42.460,58.6478
42.470,64.8914
42.480,63.6322
42.490,62.4027
42.500,61.3520
42.510,58.6760
42.520,63.3990
42.530,62.0971
42.540,57.9523
42.550,69.4898
42.560,62.8071
42.570,58.3759
42.580,64.9900
42.590,63.9992
42.600,70.9172
42.610,70.2823
42.620,67.4444
42.630,65.5930
42.640,71.2457
42.650,59.8596
42.660,60.6145
42.670,67.6404
42.680,64.1045
42.690,63.9442
42.700,67.3016
42.710,67.4652
42.720,71.0530
42.730,66.1606
42.740,63.5960
42.750,70.5836
42.760,62.1807
42.770,62.5794
42.780,71.2951
42.790,67.8167
42.800,65.8085
42.810,66.7111
42.820,73.2758
42.830,72.2125
42.840,67.1891
42.850,69.7154
42.860,75.1481
42.870,65.7925
42.880,69.5634
42.890,68.9353
42.900,74.9737
42.910,64.9291
42.920,73.7649
42.930,67.3577
42.940,70.1238
42.950,77.2129
42.960,67.0067
42.970,66.6006
42.980,65.9649
42.990,77.8369
43.000,67.0654
43.010,74.2642
43.020,70.6305
43.030,76.1593
43.040,77.0781
43.050,79.1085
43.060,69.0588
43.070,79.6331
43.080,79.3094
43.090,78.4855
43.100,68.1546
43.110,76.0286
43.120,68.8810
43.130,70.0867
43.140,74.6715
43.150,72.9229
43.160,80.0996
43.170,72.8832
43.180,79.6100
43.190,76.8241
43.200,70.5468
43.210,77.4491
43.220,68.8689
43.230,69.6404
43.240,80.7441
43.250,78.1085
43.260,72.9859
43.270,68.8222
43.280,74.6823
43.290,71.7383
43.300,70.6926
43.310,70.3535
43.320,77.0695
43.330,77.8915
43.340,72.9047
43.350,67.8273
43.360,73.6895
43.370,68.4878
43.380,66.9348
43.390,68.0595
43.400,74.7727
43.410,72.3853
43.420,78.9424
43.430,70.0721
43.440,67.6154
43.450,66.2232
43.460,73.6513
43.470,72.0881
43.480,75.2077
43.490,70.0862
43.500,75.1081
43.510,68.4041
43.520,67.0197
43.530,74.7664
43.540,67.1658
43.550,67.8535
43.560,67.7216
43.570,72.4774
43.580,68.2113
43.590,63.7249
43.600,64.3072
43.610,74.5480
43.620,72.2482
43.630,62.9014
43.640,72.2604
43.650,66.8430
43.660,73.7058
43.670,73.4798
43.680,63.3712
43.690,71.0390
43.700,64.5845
43.710,65.8978
43.720,61.5572
43.730,68.9813
43.740,62.4433
43.750,71.2397
43.760,69.2378
43.770,71.7993
43.780,68.0459
43.790,67.9905
43.800,70.5135
43.810,62.3328
43.820,66.3222
43.830,66.9966
43.840,63.0855
43.850,64.7949
43.860,70.9789
43.870,69.9405
43.880,63.8182
43.890,58.6661
43.900,58.9432
43.910,63.8103
43.920,58.5172
43.930,60.4268
43.940,68.8496
43.950,63.3893
43.960,69.7864
43.970,64.4122
43.980,65.9741
43.990,60.8867
44.000,64.8067
44.010,58.7025
44.020,63.0400
44.030,64.5668
44.040,65.0793
44.050,71.0726
44.060,68.8108
44.070,65.5342
44.080,60.5997
44.090,71.8665
44.100,64.2605
44.110,62.1658
44.120,66.7092
44.130,61.3322
44.140,65.7165
44.150,63.1908
44.160,67.0282
44.170,69.8041
44.180,66.6031
44.190,72.1966
44.200,73.1008
44.210,71.7577
44.220,71.8147
44.230,69.9809
44.240,71.3086
44.250,69.1552
44.260,69.1690
44.270,75.4938
44.280,69.2453
44.290,71.3592
44.300,71.9214
44.310,75.3415
44.320,76.3885
44.330,73.9039
44.340,65.9289
44.350,73.4389
44.360,72.3069
44.370,75.7470
44.380,68.7475
44.390,75.3848
44.400,67.3112
44.410,71.9309
44.420,76.2422
44.430,66.5028
44.440,68.0351
44.450,77.8751
44.460,74.4256
44.470,70.3827
44.480,73.7093
44.490,76.2191
44.500,75.1223
44.510,77.2689
44.520,79.6071
44.530,72.2096
44.540,80.1910
44.550,67.9900
44.560,80.6114
44.570,76.9774
44.580,68.5760
44.590,78.5863
44.600,72.1018
44.610,81.0116
44.620,72.3739
44.630,74.0985
44.640,75.0380
44.650,80.4325
44.660,77.3632
44.670,81.1256
44.680,68.6480
44.690,75.0014
44.700,80.3916
44.710,73.4979
44.720,71.9430
44.730,74.5905
44.740,67.9306
44.750,68.2652
44.760,75.3892
44.770,77.3609
44.780,71.2878
44.790,71.8503
44.800,70.4998
44.810,69.0866
44.820,74.8606
44.830,77.5579
44.840,69.7978
44.850,66.9926
44.860,72.2873
44.870,71.4348
44.880,67.8923
44.890,67.6053
44.900,67.3581
44.910,69.8623
44.920,69.0021
44.930,67.3406
44.940,65.4474
44.950,65.3732
44.960,70.6126
44.970,72.5818
44.980,71.8888
44.990,67.8202
45.000,74.3870
45.010,64.8392
45.020,73.0448
45.030,66.6279
45.040,68.8814
45.050,74.7518
45.060,78.6936
45.070,82.5137
45.080,75.6247
45.090,72.9181
45.100,75.3953
45.110,79.1214
45.120,87.5077
45.130,80.3318
45.140,90.4038
45.150,83.6293
45.160,80.5018
45.170,82.9795
45.180,92.7500
45.190,88.3318
45.200,94.8609
45.210,95.8012
45.220,86.7965
45.230,93.7091
45.240,88.5897
45.250,90.1444
45.260,96.3123
45.270,96.3657
45.280,103.4119
45.290,104.1768
45.300,104.7003
45.310,100.8621
45.320,106.9390
45.330,101.8904
45.340,111.6076
45.350,110.8995
45.360,101.5456
45.370,112.7887
45.380,114.8985
45.390,110.3856
45.400,112.6382
45.410,113.9871
45.420,111.9072
45.430,114.1894
45.440,112.4471
45.450,112.2174
45.460,123.1667
45.470,115.8712
45.480,119.4877
45.490,121.7272
45.500,124.3378
45.510,118.1069
45.520,119.3342
45.530,128.1919
45.540,120.5403
45.550,126.0091
45.560,130.4158
45.570,129.9770
45.580,131.4675
45.590,131.4205
45.600,127.4205
45.610,138.6048
45.620,138.2807
45.630,135.2247
45.640,132.9655
45.650,140.7452
45.660,135.6930
45.670,134.8841
45.680,144.6373
45.690,136.9801
45.700,147.5292
45.710,143.5709
45.720,142.8912
45.730,148.1837
45.740,141.3865
45.750,152.0210
45.760,153.9299
45.770,152.3756
45.780,153.3780
45.790,156.9821
45.800,157.8302
45.810,159.8059
45.820,150.7046
45.830,154.7932
45.840,162.2944
45.850,155.1092
45.860,158.1571
45.870,163.8058
45.880,158.8994
45.890,162.6928
45.900,167.6656
45.910,158.6691
45.920,163.8276
45.930,167.2807
45.940,162.9251
45.950,171.2682
45.960,163.9542
45.970,171.3018
45.980,178.5518
45.990,170.4630
46.000,175.3473
46.010,170.0523
46.020,177.7081
46.030,172.9449
46.040,177.0573
46.050,176.0909
46.060,176.5989
46.070,179.0713
46.080,169.9089
46.090,171.1132
46.100,177.9031
46.110,170.5240
46.120,178.5314
46.130,169.9060
46.140,176.3570
46.150,173.1515
46.160,176.4786
46.170,178.9215
46.180,168.8357
46.190,171.3308
46.200,176.5334
46.210,176.3885
46.220,180.3311
46.230,179.5761
46.240,180.4430
46.250,177.4400
46.260,170.1193
46.270,170.0926
46.280,180.6600
46.290,177.5050
46.300,171.8397
46.310,179.6677
46.320,178.7563
46.330,174.4586
46.340,179.3462
46.350,177.8339
46.360,172.7013
46.370,173.5510
46.380,178.2919
46.390,176.8407
46.400,180.2478
46.410,172.0254
46.420,170.2462
46.430,177.5280
46.440,172.9249
46.450,169.7855
46.460,175.1664
46.470,175.3564
46.480,171.2892
46.490,173.2648
46.500,178.1752
46.510,171.9997
46.520,171.1336
46.530,178.5613
46.540,179.8005
46.550,180.7014
46.560,179.2701
46.570,168.9090
46.580,176.9469
46.590,178.0550
46.600,170.1300
46.610,171.1227
46.620,175.7480
46.630,179.1700
46.640,175.4510
46.650,169.5904
46.660,170.9240
46.670,173.0577
46.680,180.6448
46.690,174.8426
46.700,173.0513
46.710,180.1654
46.720,169.6128
46.730,175.3473
46.740,175.8770
46.750,174.8913
46.760,179.7761
46.770,174.5676
46.780,169.7899
46.790,172.3282
46.800,172.3063
46.810,168.5697
46.820,173.2740
46.830,170.3707
46.840,174.3492
46.850,180.8629
46.860,174.0306
46.870,176.4713
46.880,178.4887
46.890,169.8487
46.900,179.1125
46.910,177.0161
46.920,180.6463
46.930,168.5438
46.940,168.4840
46.950,169.0453
46.960,169.2384
46.970,174.7484
46.980,179.0713
46.990,178.9863
47.000,62.5573
47.010,71.1320
47.020,61.4965
47.030,62.5914
47.040,72.1061
47.050,65.9595
47.060,66.1037
47.070,71.9678
47.080,63.2601
47.090,72.2191
47.100,72.7825
47.110,70.1401
47.120,66.2244
47.130,66.2607
47.140,67.0246
47.150,74.7094
47.160,66.1602
47.170,71.4840
47.180,69.6456
47.190,72.5962
47.200,66.1958
47.210,71.0670
47.220,77.9687
47.230,66.4194
47.240,74.8881
47.250,66.8776
47.260,78.3734
47.270,69.2288
47.280,76.3932
47.290,71.7372
47.300,75.9168
47.310,72.3084
47.320,74.4106
47.330,76.2764
47.340,69.8645
47.350,75.5833
47.360,75.2488
47.370,70.9330
47.380,74.8255
47.390,71.1645
47.400,72.2376
47.410,79.8135
47.420,68.3161
47.430,69.4553
47.440,74.6100
47.450,80.2478
47.460,71.9101
47.470,74.1588
47.480,79.3253
47.490,75.6484
47.500,75.0174
47.510,70.9397
47.520,71.4132
47.530,70.9858
47.540,80.8509
47.550,79.2022
47.560,73.7454
47.570,81.0444
47.580,76.3654
47.590,70.0183
47.600,69.5650
47.610,71.2782
47.620,74.7757
47.630,69.9058
47.640,78.0294
47.650,73.0759
47.660,68.9708
47.670,76.9283
47.680,70.3751
47.690,74.1839
47.700,70.0536
47.710,79.4030
47.720,73.6676
47.730,66.7017
47.740,67.6715
47.750,76.8237
47.760,69.3448
47.770,77.2537
47.780,68.2935
47.790,67.7589
47.800,77.6262
47.810,72.3823
47.820,65.4429
47.830,75.4659
47.840,73.7070
47.850,75.9959
47.860,69.0652
47.870,72.3671
47.880,75.3431
47.890,74.1554
47.900,74.2959
47.910,73.3487
47.920,69.5855
47.930,70.1145
47.940,70.1521
47.950,65.9941
47.960,67.5871
47.970,67.4644
47.980,72.2543
47.990,70.7123
48.000,63.4037
48.010,68.0473
48.020,71.4903
48.030,60.5964
48.040,62.6002
48.050,65.6835
48.060,65.8487
48.070,68.9767
48.080,60.7009
48.090,70.9840
48.100,65.4273
48.110,70.3215
48.120,64.0831
48.130,70.6796
48.140,62.4786
48.150,64.9244
48.160,62.3749
48.170,62.1975
48.180,62.4823
48.190,69.4415
48.200,64.6028
48.210,60.3061
48.220,69.7028
48.230,61.4032
48.240,64.0597
48.250,60.1702
48.260,59.7664
48.270,68.4291
48.280,58.6470
48.290,69.7699
48.300,69.2961
48.310,60.8623
48.320,68.2741
48.330,65.4755
48.340,61.3358
48.350,67.1111
48.360,64.3660
48.370,65.3573
48.380,65.7553
48.390,68.2576
48.400,61.1677
48.410,62.9572
48.420,66.3038
48.430,65.9627
48.440,69.0079
48.450,66.6145
48.460,71.1730
48.470,72.7392
48.480,73.1984
48.490,74.3297
48.500,69.6129
48.510,70.1325
48.520,68.6007
48.530,64.6125
48.540,70.2954
48.550,75.5364
48.560,67.6236
48.570,66.0206
48.580,66.0186
48.590,76.6922
48.600,68.3169
48.610,69.7480
48.620,65.0130
48.630,71.0979
48.640,68.0223
48.650,72.7241
48.660,67.7265
48.670,67.4650
48.680,69.5949
48.690,77.4469
48.700,67.3184
48.710,76.8715
48.720,69.7203
48.730,74.5935
48.740,68.9025
48.750,70.3889
48.760,70.5658
48.770,75.7075
48.780,69.3666
48.790,67.9014
48.800,70.6984
48.810,79.7375
48.820,71.0384
48.830,73.0797
48.840,75.8822
48.850,79.7806
48.860,77.6744
48.870,74.3054
48.880,77.2418
48.890,72.3753
48.900,72.4311
48.910,77.3312
48.920,70.6277
48.930,80.2967
48.940,79.0803
48.950,75.7165
48.960,72.6154
48.970,72.8004
48.980,78.5682
48.990,80.3602
49.000,71.3011
49.010,81.3618
49.020,79.9384
49.030,73.0413
49.040,71.0832
49.050,78.1815
49.060,71.7178
49.070,75.6231
49.080,72.6113
49.090,69.9180
49.100,76.7281
49.110,77.7886
49.120,76.1262
49.130,70.5071
49.140,72.9195
49.150,71.3998
49.160,72.8399
49.170,78.6168
49.180,74.5638
49.190,69.2061
49.200,66.6098
49.210,73.5414
49.220,65.7357
49.230,75.8282
49.240,76.1194
49.250,76.9470
49.260,68.0468
49.270,73.0430
49.280,72.4479
49.290,73.8441
49.300,65.3374
49.310,71.0700
49.320,74.3212
49.330,70.0500
49.340,73.8436
49.350,67.0717
49.360,63.7289
49.370,67.5168
49.380,74.1741
49.390,73.5377
49.400,73.5796
49.410,65.3870
49.420,61.0831
49.430,68.0271
49.440,68.1049
49.450,65.8982
49.460,70.6150
49.470,71.6779
49.480,70.7165
49.490,68.1069
49.500,70.3886
49.510,61.3230
49.520,59.6548
49.530,66.9053
49.540,69.3218
49.550,69.1346
49.560,66.9499
49.570,69.9763
49.580,65.6378
49.590,69.0783
49.600,65.7490
49.610,59.0685
49.620,58.7991
49.630,63.5399
49.640,66.0560
49.650,65.8877
49.660,60.4650
49.670,59.0454
49.680,67.5646
49.690,66.6805
49.700,62.8780
49.710,60.7303
49.720,61.1018
49.730,68.2798
49.740,60.8660
49.750,60.0931
49.760,59.9589
49.770,71.7344
49.780,68.6919
49.790,68.9763
49.800,71.8020
49.810,72.0484
49.820,64.9847
49.830,63.2398
49.840,65.2321
49.850,72.7610
49.860,61.1287
49.870,72.0289
49.880,64.2398
49.890,70.9438
49.900,72.9696
49.910,73.9723
49.920,67.2289
49.930,67.0807
49.940,69.2276
49.950,63.9120
49.960,70.6094
49.970,73.7984
49.980,65.6235
49.990,69.2879
50.000,76.0870
50.010,65.5992
50.020,73.0134
50.030,70.0064
50.040,76.9076
50.050,75.2494
50.060,73.6958
50.070,69.4792
50.080,71.8796
50.090,68.2536
50.100,71.2156
50.110,66.4500
50.120,76.5191
50.130,77.0064
50.140,72.2613
50.150,74.4223
50.160,68.4657
50.170,70.2684
50.180,73.8490
50.190,73.2770
50.200,69.8892
50.210,77.0377
50.220,77.5968
50.230,79.5020
50.240,75.4625
50.250,78.3443
50.260,74.6160
50.270,70.0550
50.280,77.1981
50.290,78.4173
50.300,76.1441
50.310,72.9131
50.320,72.8464
50.330,69.4401
50.340,71.1235
50.350,72.2033
50.360,79.6796
50.370,73.3501
50.380,76.5764
50.390,77.0804
50.400,68.9238
50.410,79.6923
50.420,71.3167
50.430,77.9784
50.440,68.9241
50.450,71.4669
50.460,72.6590
50.470,77.6025
50.480,76.6926
50.490,75.3778
50.500,75.0459
50.510,75.8350
50.520,73.8443
50.530,78.8084
50.540,71.8317
50.550,68.4229
50.560,68.1392
50.570,79.6693
50.580,68.3607
50.590,66.6110
50.600,66.9275
50.610,78.2834
50.620,66.5822
50.630,75.8900
50.640,65.4908
50.650,67.4124
50.660,76.8295
50.670,77.2716
50.680,73.1340
50.690,75.9041
50.700,72.8610
50.710,64.7188
50.720,70.1212
50.730,68.0126
50.740,67.6489
50.750,66.4110
50.760,65.1965
50.770,69.4143
50.780,66.5016
50.790,68.8839
50.800,67.3695
50.810,66.0228
50.820,74.1226
50.830,62.0829
50.840,66.2183
50.850,68.9693
50.860,66.9000
50.870,62.2447
50.880,69.4187
50.890,61.5526
50.900,71.0631
50.910,66.6146
50.920,64.3811
50.930,63.2006
50.940,64.3167
50.950,69.6172
50.960,69.5355
50.970,65.7126
50.980,64.0308
50.990,62.1153
51.000,71.2190
51.010,60.7752
51.020,64.3055
51.030,60.6784
51.040,64.0479
51.050,67.2523
51.060,69.0520
51.070,60.1753
51.080,59.0018
51.090,62.3385
51.100,64.3231
51.110,60.6068
51.120,71.3502
51.130,61.0514
51.140,62.3482
51.150,70.1844
51.160,60.6230
51.170,64.0518
51.180,69.4273
51.190,72.2234
51.200,65.2844
51.210,71.6844
51.220,64.5890
51.230,65.8343
51.240,61.6333
51.250,61.6507
51.260,71.9596
51.270,70.8899
51.280,64.0723
51.290,69.1838
51.300,66.4067
51.310,72.6843
51.320,74.1983
51.330,63.5066
51.340,74.5809
51.350,63.0110
51.360,68.4712
51.370,69.2759
51.380,72.8566
51.390,68.5574
51.400,63.4060
51.410,74.5427
51.420,74.4934
51.430,74.3451
51.440,73.5420
51.450,72.0208
51.460,75.5534
51.470,66.9151
51.480,68.8766
51.490,65.3324
51.500,70.5914
51.510,68.7954
51.520,73.4598
51.530,73.3237
51.540,67.2101
51.550,76.3550
51.560,74.1418
51.570,67.3380
51.580,68.9720
51.590,70.6402
51.600,71.8164
51.610,75.4218
51.620,76.9710
51.630,70.5128
51.640,80.0606
51.650,80.9948
51.660,79.6348
51.670,72.4834
51.680,70.3280
51.690,75.1209
51.700,69.8696
51.710,77.1226
51.720,76.9617
51.730,79.5325
51.740,77.5321
51.750,79.6618
51.760,81.9464
51.770,80.1014
51.780,76.1661
51.790,72.6393
51.800,78.0204
51.810,78.1461
51.820,77.1719
51.830,80.2949
51.840,73.7532
51.850,73.4712
51.860,74.1399
51.870,79.1252
51.880,79.3575
51.890,78.0829
51.900,71.6300
51.910,68.9899
51.920,73.3757
51.930,75.2818
51.940,75.7428
51.950,69.7651
51.960,73.4339
51.970,72.7230
51.980,70.7698
51.990,78.7313
52.000,78.4005
52.010,75.0849
52.020,73.1535
52.030,70.3470
52.040,77.0567
52.050,69.7983
52.060,75.0292
52.070,77.1527
52.080,77.2406
52.090,67.9893
52.100,77.3815
52.110,66.0113
52.120,68.7483
52.130,75.8847
52.140,68.0116
52.150,67.9180
52.160,74.9591
52.170,71.4349
52.180,64.5368
52.190,75.3435
52.200,69.2280
52.210,68.7314
52.220,72.5197
52.230,66.8524
52.240,64.4206
52.250,66.2851
52.260,70.5250
52.270,62.1937
52.280,73.3396
52.290,62.9192
52.300,64.9751
52.310,67.4440
52.320,60.3708
52.330,63.5295
52.340,63.7260
52.350,68.2154
52.360,70.1367
52.370,63.4332
52.380,64.5744
52.390,68.5846
52.400,65.1329
52.410,62.1082
52.420,71.9340
52.430,71.2255
52.440,64.1930
52.450,67.9214
52.460,64.4082
52.470,71.7958
52.480,70.1132
52.490,64.1044
52.500,65.4713
52.510,69.0096
52.520,64.4842
52.530,65.5207
52.540,70.5806
52.550,66.5867
52.560,66.5958
52.570,68.8651
52.580,70.3732
52.590,66.8561
52.600,66.0189
52.610,65.0846
52.620,72.0509
52.630,71.2957
52.640,69.6188
52.650,60.3437
52.660,65.1234
52.670,63.0267
52.680,65.3922
52.690,73.3172
52.700,69.3958
52.710,66.4393
52.720,62.3606
52.730,70.9989
52.740,65.0824
52.750,62.0252
52.760,69.2164
52.770,63.6449
52.780,73.1776
52.790,63.7585
52.800,71.3031
52.810,63.7520
52.820,64.2304
52.830,65.8778
52.840,66.8298
52.850,65.2016
52.860,74.4148
52.870,75.5918
52.880,72.1412
52.890,70.7557
52.900,71.5229
52.910,72.6559
52.920,77.2719
52.930,67.5194
52.940,76.0803
52.950,67.7528
52.960,66.3913
52.970,67.3279
52.980,75.3758
52.990,70.2500
53.000,68.8253
53.010,76.8195
53.020,76.9464
53.030,73.6595
53.040,76.0364
53.050,80.3818
53.060,78.1960
53.070,79.6083
53.080,80.9919
53.090,69.0616
53.100,76.7039
53.110,74.2937
53.120,76.0839
53.130,79.5261
53.140,76.8990
53.150,80.0971
53.160,80.5775
53.170,82.0520
53.180,76.0227
53.190,76.8816
53.200,78.7256
53.210,73.6066
53.220,69.9579
53.230,81.3009
53.240,78.9401
53.250,69.2734
53.260,77.5517
53.270,76.9713
53.280,78.3747
53.290,69.4017
53.300,69.8754
53.310,69.9662
53.320,74.0497
53.330,70.5725
53.340,75.5510
53.350,77.1583
53.360,73.4333
53.370,73.0487
53.380,76.3010
53.390,72.8870
53.400,73.6863
53.410,77.2670
53.420,67.8258
53.430,75.2431
53.440,77.4081
53.450,71.6779
53.460,78.8912
53.470,75.9198
53.480,67.9550
53.490,73.3813
53.500,70.7556
53.510,68.0566
53.520,70.7146
53.530,70.7675
53.540,73.3513
53.550,73.3357
53.560,71.0633
53.570,64.4672
53.580,67.9857
53.590,73.7180
53.600,68.9660
53.610,69.7940
53.620,70.1201
53.630,64.7606
53.640,72.4616
53.650,67.3566
53.660,67.7434
53.670,65.8290
53.680,62.0151
53.690,65.7572
53.700,67.9470
53.710,68.6258
53.720,62.2171
53.730,67.0303
53.740,72.1744
53.750,60.8893
53.760,65.5926
53.770,67.3132
53.780,65.3557
53.790,69.9936
53.800,62.3858
53.810,60.3862
53.820,70.4221
53.830,64.3849
53.840,65.4510
53.850,68.4979
53.860,66.9574
53.870,68.5869
53.880,62.7701
53.890,69.5840
53.900,61.0949
53.910,62.3718
53.920,62.3389
53.930,69.9376
53.940,64.2896
53.950,68.8253
53.960,69.1529
53.970,62.4335
53.980,61.8316
53.990,63.3722
54.000,63.3770
54.010,60.8470
54.020,62.9706
54.030,64.3739
54.040,62.8544
54.050,63.4048
54.060,60.6749
54.070,65.2309
54.080,70.2688
54.090,68.0453
54.100,62.9379
54.110,64.3272
54.120,67.9084
54.130,73.1538
54.140,68.3517
54.150,71.5392
54.160,70.6791
54.170,66.4627
54.180,74.3078
54.190,74.6880
54.200,64.7743
54.210,67.6614
54.220,66.8850
54.230,66.7919
54.240,69.7639
54.250,71.3066
54.260,64.5512
54.270,71.6255
54.280,64.4508
54.290,69.2483
54.300,66.3888
54.310,71.6309
54.320,73.1986
54.330,71.4473
54.340,71.8261
54.350,75.8099
54.360,67.4693
54.370,67.2083
54.380,79.0227
54.390,73.7120
54.400,75.6417
54.410,72.5268
54.420,73.5919
54.430,67.5761
54.440,79.5673
54.450,74.3395
54.460,71.4370
54.470,70.9086
54.480,73.3082
54.490,69.9781
54.500,71.1991
54.510,77.3773
54.520,80.0113
54.530,69.0532
54.540,78.2403
54.550,71.6387
54.560,71.6864
54.570,81.6131
54.580,79.2818
54.590,70.7829
54.600,75.7233
54.610,77.1237
54.620,80.4290
54.630,75.9400
54.640,81.0118
54.650,70.2866
54.660,77.1015
54.670,70.7696
54.680,77.3970
54.690,78.4518
54.700,71.8018
54.710,74.6978
54.720,69.8287
54.730,76.6065
54.740,78.2108
54.750,75.6311
54.760,68.7772
54.770,68.8454
54.780,72.6720
54.790,72.1497
54.800,75.0720
54.810,79.0548
54.820,74.8721
54.830,78.2491
54.840,73.8127
54.850,78.9695
54.860,73.9817
54.870,76.8268
54.880,73.9362
54.890,68.0651
54.900,71.4870
54.910,69.5839
54.920,70.8819
54.930,74.9660
54.940,68.3088
54.950,67.2671
54.960,68.9883
54.970,73.8501
54.980,69.5962
54.990,70.2816
55.000,74.3200
55.010,66.4289
55.020,66.7871
55.030,70.5008
55.040,69.0978
55.050,74.4439
55.060,63.1209
55.070,69.6316
55.080,71.2417
55.090,64.8528
55.100,70.3861
55.110,62.5512
55.120,73.3685
55.130,62.4850
55.140,66.1456
55.150,61.6594
55.160,70.0812
55.170,71.8699
55.180,70.6323
55.190,63.7312
55.200,68.0761
55.210,72.2014
55.220,70.0489
55.230,68.9807
55.240,66.9940
55.250,62.6398
55.260,70.8169
55.270,61.9430
55.280,62.7630
55.290,69.2524
55.300,60.8886
55.310,69.7942
55.320,61.2674
55.330,64.2631
55.340,62.8237
55.350,63.6036
55.360,67.9944
55.370,71.4422
55.380,70.2774
55.390,68.1524
55.400,63.6661
55.410,65.5989
55.420,69.5828
55.430,60.3890
55.440,68.3710
55.450,65.1517
55.460,69.6245
55.470,65.5413
55.480,60.4332
55.490,70.6864
55.500,65.7593
55.510,62.3965
55.520,68.0204
55.530,72.0385
55.540,70.5159
55.550,73.5157
55.560,62.7864
55.570,66.1333
55.580,65.4574
55.590,71.6692
55.600,63.3732
55.610,71.9662
55.620,68.7352
55.630,64.3470
55.640,71.7420
55.650,74.5080
55.660,69.8274
55.670,64.5303
55.680,73.4872
55.690,74.0678
55.700,64.7627
55.710,65.2149
55.720,71.5157
55.730,74.7292
55.740,65.7893
55.750,67.4875
55.760,71.4250
55.770,66.1253
55.780,68.3575
55.790,72.5617
55.800,69.2296
55.810,76.7592
55.820,75.5410
55.830,73.4807
55.840,71.1468
55.850,76.4404
55.860,76.0316
55.870,75.9384
55.880,74.5682
55.890,77.1421
55.900,75.7143
55.910,75.8024
55.920,74.2765
55.930,78.1655
55.940,72.7539
55.950,81.2925
55.960,69.6705
55.970,73.8012
55.980,71.6077
55.990,78.6399
56.000,77.3907
56.010,71.6219
56.020,72.1169
56.030,81.4285
56.040,75.4641
56.050,77.0419
56.060,74.1452
56.070,81.4389
56.080,80.2175
56.090,72.2837
56.100,82.2965
56.110,69.8293
56.120,78.6832
56.130,77.6559
56.140,71.2158
56.150,80.9192
56.160,75.4328
56.170,69.4704
56.180,77.1709
56.190,69.9032
56.200,74.9642
56.210,70.2398
56.220,73.1622
56.230,72.5907
56.240,70.8887
56.250,79.3183
56.260,76.3010
56.270,77.4602
56.280,79.8040
56.290,72.1053
56.300,79.5441
56.310,70.3996
56.320,74.6258
56.330,71.1567
56.340,71.0293
56.350,74.4984
56.360,70.5185
56.370,77.2026
56.380,77.3833
56.390,76.7623
56.400,71.5334
56.410,73.7780
56.420,75.8011
56.430,69.7630
56.440,76.0497
56.450,73.2042
56.460,63.8620
56.470,68.1850
56.480,64.0208
56.490,70.7301
56.500,70.2586
56.510,65.1117
56.520,72.2775
56.530,66.6800
56.540,70.9884
56.550,70.0794
56.560,66.0122
56.570,64.7638
56.580,68.7800
56.590,71.3418
56.600,73.8236
56.610,63.7607
56.620,67.3051
56.630,69.3013
56.640,63.4408
56.650,71.8762
56.660,70.1799
56.670,62.7723
56.680,66.2406
56.690,63.4611
56.700,69.9462
56.710,62.8876
56.720,67.3781
56.730,70.9234
56.740,68.7486
56.750,62.2510
56.760,67.8418
56.770,71.3962
56.780,60.9750
56.790,70.0722
56.800,65.8725
56.810,65.7062
56.820,65.0614
56.830,63.2770
56.840,67.0091
56.850,67.2523
56.860,72.4106
56.870,60.5524
56.880,67.6955
56.890,71.5102
56.900,67.1272
56.910,71.0547
56.920,71.7532
56.930,60.4597
56.940,68.0620
56.950,66.0162
56.960,73.4991
56.970,69.7832
56.980,63.7160
56.990,62.1206
57.000,68.2937
57.010,65.8565
57.020,67.4489
57.030,62.5383
57.040,64.0349
57.050,75.0651
57.060,74.6484
57.070,75.1941
57.080,69.3340
57.090,70.2355
57.100,73.2942
57.110,65.5348
57.120,69.4550
57.130,75.4139
57.140,66.6525
57.150,72.2827
57.160,69.1804
57.170,66.7433
57.180,74.1720
57.190,69.0243
57.200,78.4255
57.210,70.1943
57.220,70.9208
57.230,76.5020
57.240,68.0853
57.250,73.8696
57.260,79.8697
57.270,77.1867
57.280,67.8719
57.290,68.4388
57.300,80.5025
57.310,72.9161
57.320,79.3030
57.330,76.8506
57.340,72.8075
57.350,74.7268
57.360,80.3617
57.370,78.1824
57.380,69.9131
57.390,74.9625
57.400,76.1561
57.410,80.7776
57.420,77.8993
57.430,75.9023
57.440,81.0117
57.450,71.6666
57.460,82.3944
57.470,79.1206
57.480,71.8879
57.490,76.2442
57.500,77.0381
57.510,75.3121
57.520,76.7582
57.530,71.7020
57.540,82.5437
57.550,70.2805
57.560,75.2095
57.570,78.6943
57.580,73.9613
57.590,79.2250
57.600,78.4918
57.610,77.1239
57.620,72.6184
57.630,75.9771
57.640,79.1518
57.650,74.3973
57.660,73.0580
57.670,74.9075
57.680,68.4227
57.690,74.9007
57.700,80.1466
57.710,77.1310
57.720,77.8899
57.730,76.5439
57.740,67.7099
57.750,71.8709
57.760,66.7496
57.770,77.8466
57.780,71.4511
57.790,70.8774
57.800,78.8134
57.810,68.0623
57.820,72.9371
57.830,75.6621
57.840,70.6642
57.850,75.0645
57.860,66.4203
57.870,76.9848
57.880,70.4134
57.890,66.8078
57.900,74.6350
57.910,69.9039
57.920,73.9724
57.930,75.8257
57.940,63.0571
57.950,66.9369
57.960,65.8808
57.970,74.1047
57.980,72.3169
57.990,66.2157
58.000,72.8453
58.010,64.7068
58.020,63.5768
58.030,69.4567
58.040,66.5397
58.050,73.0838
58.060,71.4537
58.070,63.4105
58.080,62.6686
58.090,72.6971
58.100,60.5317
58.110,68.0629
58.120,61.9875
58.130,65.9145
58.140,69.3399
58.150,70.4005
58.160,71.2135
58.170,70.3218
58.180,69.9976
58.190,66.4978
58.200,60.4077
58.210,62.2462
58.220,66.3048
58.230,66.3033
58.240,72.1866
58.250,71.0598
58.260,67.9455
58.270,61.3062
58.280,70.9611
58.290,71.1493
58.300,68.2035
58.310,60.4863
58.320,63.3427
58.330,63.8133
58.340,63.4667
58.350,66.4621
58.360,60.8388
58.370,70.0700
58.380,68.2336
58.390,62.9915
58.400,73.0859
58.410,73.1615
58.420,61.6567
58.430,69.4592
58.440,63.7730
58.450,65.5021
58.460,66.5553
58.470,67.7213
58.480,68.9083
58.490,71.9372
58.500,64.1777
58.510,70.5529
58.520,71.4922
58.530,72.7744
58.540,71.7360
58.550,65.8067
58.560,68.5973
58.570,68.9863
58.580,75.0460
58.590,68.6186
58.600,67.6613
58.610,71.2390
58.620,75.8996
58.630,77.6554
58.640,68.5482
58.650,75.6581
58.660,69.4823
58.670,70.0692
58.680,69.8019
58.690,71.7318
58.700,77.1814
58.710,69.7960
58.720,68.3185
58.730,69.5409
58.740,80.5189
58.750,75.6692
58.760,76.1015
58.770,78.0881
58.780,78.8357
58.790,72.1831
58.800,74.4473
58.810,77.6050
58.820,80.6176
58.830,82.0345
58.840,72.4538
58.850,80.6184
58.860,72.4104
58.870,73.8261
58.880,78.3475
58.890,77.1607
58.900,72.6562
58.910,78.5070
58.920,77.2107
58.930,74.5137
58.940,78.6368
58.950,75.5198
58.960,76.6540
58.970,78.6732
58.980,80.4183
58.990,80.6012
59.000,73.5008
59.010,81.0425
59.020,71.4651
59.030,74.4639
59.040,81.7479
59.050,81.2345
59.060,75.7596
59.070,69.3851
59.080,73.0828
59.090,77.3156
59.100,75.8621
59.110,79.2725
59.120,71.6958
59.130,70.9322
59.140,68.4428
59.150,68.6859
59.160,76.8721
59.170,69.5110
59.180,73.7516
59.190,73.0132
59.200,69.6303
59.210,76.2770
59.220,66.5809
59.230,67.4631
59.240,78.5404
59.250,77.2048
59.260,74.5014
59.270,72.3533
59.280,69.1876
59.290,66.5863
59.300,71.0992
59.310,73.5130
59.320,65.8439
59.330,71.2646
59.340,67.2849
59.350,75.3084
59.360,75.8659
59.370,74.9679
59.380,64.9228
59.390,73.7680
59.400,63.5928
59.410,67.1841
59.420,70.8191
59.430,65.0713
59.440,71.9797
59.450,68.5142
59.460,66.4842
59.470,64.5957
59.480,64.4912
59.490,71.7400
59.500,68.0667
59.510,67.7637
59.520,66.6976
59.530,64.1588
59.540,67.0642
59.550,66.1773
59.560,62.2333
59.570,68.5963
59.580,71.8829
59.590,66.9305
59.600,63.1593
59.610,71.3300
59.620,68.5951
59.630,66.3998
59.640,62.2619
59.650,62.3070
59.660,64.6168
59.670,72.2568
59.680,62.4193
59.690,68.2112
59.700,62.3053
59.710,60.9323
59.720,67.5440
59.730,69.4448
59.740,62.3273
59.750,66.9231
59.760,65.6212
59.770,70.5573
59.780,69.6144
59.790,60.7956
59.800,65.0967
59.810,69.1131
59.820,65.5206
59.830,71.7265
59.840,72.9366
59.850,64.2041
59.860,66.8272
59.870,68.2730
59.880,70.3809
59.890,66.2101
59.900,67.8933
59.910,63.8003
59.920,74.9161
59.930,69.4013
59.940,75.6493
59.950,67.5190
59.960,65.7551
59.970,74.7813
59.980,66.9489
59.990,71.5620
