t_s,envelope_uV
0.000,88.8586
0.010,82.7708
0.020,86.7741
0.030,82.7004
0.040,82.7750
0.050,80.5957
0.060,85.9209
0.070,88.4817
0.080,81.6111
0.090,88.5989
0.100,89.1400
0.110,90.5550
0.120,86.1864
0.130,86.3413
0.140,84.7310
0.150,91.6742
0.160,85.2338
0.170,89.9407
0.180,89.9095
0.190,93.5881
0.200,91.3907
0.210,90.1535
0.220,82.5562
0.230,83.7027
0.240,92.1438
0.250,84.8840
0.260,89.3095
0.270,88.2353
0.280,83.6433
0.290,83.9894
0.300,92.6136
0.310,85.1961
0.320,92.5965
0.330,86.6129
0.340,91.0032
0.350,92.9737
0.360,84.6052
0.370,92.1161
0.380,93.6720
0.390,92.3424
0.400,92.9136
0.410,92.4978
0.420,86.2473
0.430,94.2497
0.440,86.5911
0.450,87.1980
0.460,90.7352
0.470,86.8036
0.480,87.1511
0.490,85.4893
0.500,87.1238
0.510,89.9134
0.520,93.0050
0.530,88.6551
0.540,89.5577
0.550,90.1250
0.560,86.8649
0.570,89.7588
0.580,81.8348
0.590,87.1633
0.600,84.3583
0.610,90.9672
0.620,87.2645
0.630,83.8179
0.640,84.9889
0.650,80.2538
0.660,84.6787
0.670,88.9335
0.680,90.8990
0.690,82.5884
0.700,88.7363
0.710,86.0958
0.720,79.4074
0.730,79.4219
0.740,83.9812
0.750,78.1374
0.760,84.7674
0.770,85.2060
0.780,83.1918
0.790,88.2311
0.800,78.1690
0.810,83.1550
0.820,78.2218
0.830,80.9879
0.840,80.8339
0.850,83.3718
0.860,85.0157
0.870,85.9607
0.880,82.5126
0.890,79.0049
0.900,81.7180
0.910,82.0875
0.920,77.1319
0.930,76.2388
0.940,86.0970
0.950,77.8860
0.960,84.4613
0.970,81.6202
0.980,85.4103
0.990,82.8436
1.000,75.3399
1.010,77.0632
1.020,78.1207
1.030,83.9466
1.040,85.5633
1.050,83.2915
1.060,77.6305
1.070,76.1019
1.080,74.3993
1.090,75.5169
1.100,84.5586
1.110,82.1728
1.120,83.6733
1.130,82.9675
1.140,81.3454
1.150,81.1862
1.160,82.2989
1.170,76.8392
1.180,84.7572
1.190,75.8505
1.200,83.4487
1.210,84.4435
1.220,77.4761
1.230,82.5586
1.240,86.7074
1.250,86.5954
1.260,84.2272
1.270,79.7821
1.280,82.4417
1.290,82.8442
1.300,84.4005
1.310,77.5917
1.320,77.8511
1.330,84.3180
1.340,80.0863
1.350,79.0472
1.360,78.9499
1.370,84.1696
1.380,78.8531
1.390,84.1281
1.400,87.9682
1.410,89.3367
1.420,85.8918
1.430,83.4518
1.440,85.1516
1.450,89.5815
1.460,83.2990
1.470,88.7174
1.480,90.0337
1.490,89.1500
1.500,85.1190
1.510,87.2428
1.520,91.2139
1.530,88.7632
1.540,88.4986
1.550,84.5579
1.560,89.3712
1.570,83.8612
1.580,92.2015
1.590,82.0705
1.600,82.5820
1.610,84.3985
1.620,87.4636
1.630,84.4966
1.640,88.0360
1.650,93.1744
1.660,94.2377
1.670,92.9389
1.680,87.0860
1.690,85.4519
1.700,87.9307
1.710,91.7202
1.720,89.3158
1.730,85.5799
1.740,89.5566
1.750,86.1076
1.760,83.9913
1.770,89.9265
1.780,93.1384
1.790,94.7012
1.800,87.2247
1.810,92.0807
1.820,93.2695
1.830,88.7334
1.840,84.1549
1.850,84.1327
1.860,92.6636
1.870,91.4057
1.880,87.4872
1.890,87.5259
1.900,94.7871
1.910,92.3485
1.920,91.0347
1.930,83.1344
1.940,89.3826
1.950,91.5327
1.960,88.2368
1.970,93.4620
1.980,84.1914
1.990,92.2588
2.000,90.2680
2.010,92.0852
2.020,89.4621
2.030,84.0055
2.040,87.4498
2.050,84.9344
2.060,86.1018
2.070,87.7899
2.080,85.3542
2.090,86.1821
2.100,86.3523
2.110,82.9112
2.120,81.2634
2.130,91.0101
2.140,83.1388
2.150,88.9558
2.160,83.3136
2.170,87.5733
2.180,86.1640
2.190,89.1320
2.200,82.0703
2.210,82.0266
2.220,78.0745
2.230,85.1207
2.240,82.8312
2.250,86.0683
2.260,84.8321
2.270,77.0383
2.280,84.9375
2.290,82.7965
2.300,85.4980
2.310,79.9265
2.320,82.3005
2.330,79.2746
2.340,76.6410
2.350,87.0825
2.360,79.2191
2.370,85.1450
2.380,85.7244
2.390,76.5449
2.400,77.7890
2.410,81.9189
2.420,76.6942
2.430,82.0226
2.440,84.6143
2.450,77.9153
2.460,82.0670
2.470,85.4540
2.480,85.0089
2.490,81.8077
2.500,85.1943
2.510,84.5150
2.520,79.6423
2.530,82.1296
2.540,86.1146
2.550,83.2964
2.560,84.2736
2.570,81.8247
2.580,84.7436
2.590,76.1098
2.600,84.5456
2.610,78.0758
2.620,84.7667
2.630,83.7604
2.640,80.0016
2.650,81.1403
2.660,82.4014
2.670,84.3627
2.680,77.1248
2.690,78.5484
2.700,83.0777
2.710,86.6484
2.720,78.0560
2.730,82.1454
2.740,77.4705
2.750,79.8179
2.760,79.5246
2.770,87.1536
2.780,80.9671
2.790,80.3242
2.800,85.5839
2.810,86.5270
2.820,89.0390
2.830,86.9538
2.840,82.2372
2.850,79.3134
2.860,89.2363
2.870,82.6913
2.880,84.6776
2.890,87.5904
2.900,88.5942
2.910,91.1814
2.920,81.2429
2.930,89.8059
2.940,86.5325
2.950,85.3973
2.960,90.8883
2.970,86.3296
2.980,86.7310
2.990,89.4208
3.000,87.2122
3.010,83.5633
3.020,88.8637
3.030,84.1875
3.040,88.4800
3.050,87.9570
3.060,89.9283
3.070,89.0975
3.080,86.9568
3.090,85.0901
3.100,91.6375
3.110,83.8951
3.120,94.8865
3.130,90.1536
3.140,88.6202
3.150,87.3181
3.160,90.2081
3.170,90.6858
3.180,88.1265
3.190,87.3936
3.200,89.9862
3.210,91.3401
3.220,87.2889
3.230,84.5582
3.240,94.0050
3.250,85.8232
3.260,93.2696
3.270,88.3558
3.280,88.4217
3.290,86.4281
3.300,93.5679
3.310,94.8756
3.320,93.7179
3.330,94.0663
3.340,93.6271
3.350,90.2375
3.360,91.4340
3.370,90.6191
3.380,86.2926
3.390,92.1534
3.400,92.9265
3.410,82.6718
3.420,83.1017
3.430,93.7854
3.440,93.2915
3.450,89.3261
3.460,91.5950
3.470,84.8101
3.480,87.4047
3.490,86.5758
3.500,84.8704
3.510,87.9242
3.520,90.5131
3.530,85.5571
3.540,88.4626
3.550,89.8870
3.560,80.4059
3.570,79.7947
3.580,85.2558
3.590,89.3719
3.600,89.0845
3.610,79.4956
3.620,85.7246
3.630,79.1214
3.640,88.0904
3.650,78.2614
3.660,78.8321
3.670,88.3537
3.680,83.8411
3.690,84.7580
3.700,86.1039
3.710,85.1766
3.720,79.5817
3.730,79.3320
3.740,86.7926
3.750,79.0722
3.760,81.5435
3.770,78.7596
3.780,84.3336
3.790,79.9686
3.800,84.0007
3.810,85.6503
3.820,85.3962
3.830,75.4910
3.840,77.2784
3.850,82.4052
3.860,75.9403
3.870,77.3448
3.880,85.9094
3.890,78.6571
3.900,85.6566
3.910,80.1047
3.920,80.5550
3.930,86.1020
3.940,85.4144
3.950,79.6194
3.960,83.4011
3.970,85.4579
3.980,81.2017
3.990,79.3938
4.000,83.3771
4.010,81.5603
4.020,86.5683
4.030,78.3134
4.040,76.6528
4.050,82.7039
4.060,76.5812
4.070,76.8405
4.080,82.8398
4.090,80.9232
4.100,83.6404
4.110,76.6949
4.120,79.5971
4.130,80.8168
4.140,82.0988
4.150,82.4296
4.160,78.3427
4.170,87.6270
4.180,80.1446
4.190,81.7198
4.200,87.3773
4.210,89.5275
4.220,85.1716
4.230,78.4838
4.240,84.3110
4.250,84.1959
4.260,86.5937
4.270,85.1688
4.280,90.8992
4.290,84.2551
4.300,91.4932
4.310,80.4235
4.320,90.9492
4.330,84.2553
4.340,89.9040
4.350,90.2000
4.360,82.0432
4.370,85.3863
4.380,88.2040
4.390,85.2363
4.400,92.8874
4.410,85.7247
4.420,88.7204
4.430,92.5760
4.440,83.2975
4.450,90.3775
4.460,87.8196
4.470,92.9986
4.480,85.7040
4.490,85.1715
4.500,87.9857
4.510,88.0838
4.520,92.7461
4.530,92.3399
4.540,91.8385
4.550,93.5323
4.560,88.7651
4.570,91.0837
4.580,85.8175
4.590,90.8431
4.600,93.5719
4.610,91.8558
4.620,85.4277
4.630,89.4713
4.640,87.9757
4.650,86.4331
4.660,85.7828
4.670,95.0264
4.680,89.4893
4.690,93.7661
4.700,84.6638
4.710,93.6636
4.720,85.1833
4.730,88.9412
4.740,86.2931
4.750,86.5502
4.760,91.4496
4.770,87.0088
4.780,91.3209
4.790,86.5771
4.800,93.2160
4.810,93.4713
4.820,94.5467
4.830,85.6895
4.840,84.1645
4.850,87.7174
4.860,89.3350
4.870,86.6421
4.880,88.4686
4.890,86.4410
4.900,92.8460
4.910,87.2634
4.920,87.3350
4.930,91.4045
4.940,85.3159
4.950,81.5428
4.960,86.2575
4.970,91.4299
4.980,81.9475
4.990,84.8985
5.000,81.5251
5.010,84.5906
5.020,82.9011
5.030,90.0970
5.040,86.8784
5.050,86.9350
5.060,89.9559
5.070,80.3956
5.080,82.1324
5.090,85.7375
5.100,82.8089
5.110,87.3871
5.120,78.3099
5.130,84.2622
5.140,77.9595
5.150,85.4209
5.160,87.0060
5.170,87.4780
5.180,80.6256
5.190,77.7048
5.200,77.5556
5.210,77.1193
5.220,80.0478
5.230,77.1023
5.240,79.9637
5.250,87.2985
5.260,77.1670
5.270,82.2440
5.280,86.4398
5.290,84.5929
5.300,85.6660
5.310,81.2149
5.320,83.8420
5.330,81.8647
5.340,80.0197
5.350,79.3301
5.360,81.3534
5.370,79.1337
5.380,85.0184
5.390,86.5254
5.400,77.0976
5.410,85.6080
5.420,76.6395
5.430,80.2020
5.440,85.9068
5.450,76.6047
5.460,77.3999
5.470,80.3885
5.480,76.6375
5.490,78.2215
5.500,81.2861
5.510,85.5854
5.520,77.7449
5.530,79.2069
5.540,77.8242
5.550,80.0444
5.560,80.1429
5.570,82.9027
5.580,77.4656
5.590,85.7118
5.600,81.4115
5.610,79.0734
5.620,78.1326
5.630,86.7382
5.640,78.6738
5.650,86.4557
5.660,84.9324
5.670,87.8354
5.680,90.1286
5.690,83.9553
5.700,85.0747
5.710,85.6647
5.720,85.7640
5.730,89.1142
5.740,91.1255
5.750,88.1103
5.760,90.0759
5.770,91.4898
5.780,88.6623
5.790,82.8514
5.800,89.6412
5.810,87.6939
5.820,82.3308
5.830,86.3435
5.840,85.5793
5.850,91.3147
5.860,83.8032
5.870,83.8803
5.880,85.7384
5.890,87.1624
5.900,94.6208
5.910,86.7327
5.920,87.7440
5.930,91.8590
5.940,92.3705
5.950,91.7484
5.960,84.6313
5.970,93.4893
5.980,84.6785
5.990,93.8654
6.000,86.5615
6.010,94.5547
6.020,94.6666
6.030,95.4317
6.040,95.8771
6.050,90.1609
6.060,90.0095
6.070,87.3679
6.080,90.7611
6.090,95.7814
6.100,84.8479
6.110,91.4620
6.120,95.2728
6.130,91.6209
6.140,90.3272
6.150,94.9264
6.160,85.1436
6.170,87.5598
6.180,90.4803
6.190,93.7737
6.200,92.3287
6.210,94.9316
6.220,92.0568
6.230,93.5538
6.240,93.5217
6.250,88.1512
6.260,93.3076
6.270,93.4193
6.280,91.1221
6.290,90.0915
6.300,88.2121
6.310,92.8568
6.320,85.7179
6.330,87.8003
6.340,87.3505
6.350,87.2604
6.360,89.2791
6.370,90.1842
6.380,86.7996
6.390,87.4282
6.400,91.2602
6.410,81.3654
6.420,89.6638
6.430,82.1671
6.440,88.4782
6.450,85.5069
6.460,82.0939
6.470,83.6789
6.480,86.3290
6.490,79.2475
6.500,83.0218
6.510,87.9533
6.520,78.6696
6.530,79.6642
6.540,83.5134
6.550,88.7433
6.560,86.0082
6.570,81.6540
6.580,87.1534
6.590,86.6682
6.600,81.7107
6.610,85.6340
6.620,80.9520
6.630,80.1592
6.640,85.5884
6.650,79.5526
6.660,85.8986
6.670,87.1546
6.680,86.5669
6.690,80.8787
6.700,79.5769
6.710,80.7956
6.720,85.4469
6.730,76.9046
6.740,87.1382
6.750,81.7557
6.760,85.2142
6.770,77.5967
6.780,77.7257
6.790,76.2118
6.800,77.1991
6.810,77.9391
6.820,79.4079
6.830,84.7176
6.840,80.3816
6.850,83.9995
6.860,86.1775
6.870,78.2660
6.880,82.3656
6.890,77.6453
6.900,81.3264
6.910,87.6153
6.920,79.9733
6.930,84.3178
6.940,87.5094
6.950,77.2838
6.960,80.5960
6.970,86.7060
6.980,85.7299
6.990,78.9786
7.000,86.5159
7.010,87.1249
7.020,89.4016
7.030,79.0265
7.040,81.5847
7.050,86.8437
7.060,86.3909
7.070,82.0052
7.080,84.7101
7.090,80.7031
7.100,90.5184
7.110,84.1162
7.120,81.2208
7.130,88.8261
7.140,87.6017
7.150,82.4522
7.160,86.4399
7.170,85.1247
7.180,92.5208
7.190,84.9128
7.200,88.8549
7.210,86.0172
7.220,83.5398
7.230,89.6477
7.240,87.7348
7.250,91.7243
7.260,85.6823
7.270,90.5758
7.280,84.1325
7.290,89.7203
7.300,83.6700
7.310,90.0560
7.320,86.2396
7.330,92.4237
7.340,87.2635
7.350,91.8790
7.360,92.5779
7.370,92.1989
7.380,88.1052
7.390,86.9078
7.400,84.9272
7.410,94.3323
7.420,87.8764
7.430,91.0777
7.440,92.1758
7.450,95.2395
7.460,85.2537
7.470,90.6010
7.480,95.0709
7.490,90.9102
7.500,94.0749
7.510,93.3654
7.520,89.8418
7.530,93.3642
7.540,95.1409
7.550,93.7099
7.560,93.1072
7.570,94.2297
7.580,89.7284
7.590,85.2760
7.600,95.9672
7.610,86.8511
7.620,91.0248
7.630,91.1074
7.640,91.5317
7.650,91.8426
7.660,84.1393
7.670,86.2005
7.680,90.9061
7.690,91.1486
7.700,92.5302
7.710,94.7225
7.720,89.5752
7.730,85.8026
7.740,87.1305
7.750,84.7449
7.760,86.2460
7.770,86.0527
7.780,93.5251
7.790,85.7513
7.800,82.3946
7.810,91.6389
7.820,91.2708
7.830,89.1414
7.840,90.3509
7.850,82.8774
7.860,80.8862
7.870,80.8612
7.880,81.5323
7.890,89.9849
7.900,88.1260
7.910,81.8113
7.920,80.8801
7.930,86.9497
7.940,82.2293
7.950,79.1725
7.960,81.3693
7.970,87.7450
7.980,81.4023
7.990,82.9339
8.000,79.7574
8.010,83.7493
8.020,88.5095
8.030,77.4191
8.040,81.7535
8.050,84.2445
8.060,81.4998
8.070,83.0798
8.080,79.2672
8.090,76.7349
8.100,82.1535
8.110,82.8056
8.120,87.3618
8.130,81.1999
8.140,77.1583
8.150,76.8551
8.160,80.2526
8.170,78.0227
8.180,83.9284
8.190,76.0481
8.200,81.9826
8.210,80.7904
8.220,84.9081
8.230,78.9528
8.240,86.5975
8.250,82.6126
8.260,85.6821
8.270,83.2130
8.280,83.9293
8.290,86.1899
8.300,77.5346
8.310,85.3370
8.320,81.6367
8.330,86.2744
8.340,80.3767
8.350,81.6366
8.360,87.9276
8.370,87.2829
8.380,77.4660
8.390,79.2236
8.400,87.9333
8.410,78.3994
8.420,79.9557
8.430,87.3270
8.440,88.4229
8.450,82.4208
8.460,89.8859
8.470,87.7699
8.480,80.8107
8.490,81.0330
8.500,89.3823
8.510,83.7544
8.520,84.8982
8.530,84.9597
8.540,88.4846
8.550,82.5485
8.560,90.7565
8.570,84.4826
8.580,91.1058
8.590,85.6614
8.600,89.3373
8.610,83.8593
8.620,88.0672
8.630,84.8100
8.640,92.7553
8.650,91.1565
8.660,87.2619
8.670,87.8900
8.680,87.2987
8.690,89.0745
8.700,85.8113
8.710,85.3934
8.720,84.2745
8.730,84.5214
8.740,88.0790
8.750,85.4793
8.760,88.6425
8.770,88.4521
8.780,89.5622
8.790,87.3387
8.800,87.7772
8.810,90.2550
8.820,88.5035
8.830,87.1433
8.840,90.0657
8.850,92.1760
8.860,86.6936
8.870,90.2176
8.880,92.4154
8.890,90.3938
8.900,94.4599
8.910,90.0229
8.920,86.8322
8.930,94.8775
8.940,90.1450
8.950,96.2750
8.960,90.2521
8.970,89.9220
8.980,89.0528
8.990,87.8751
9.000,92.5288
9.010,87.4376
9.020,92.6267
9.030,91.1693
9.040,93.3745
9.050,91.8628
9.060,91.9491
9.070,92.6982
9.080,95.3035
9.090,93.9846
9.100,88.2201
9.110,93.1182
9.120,90.4424
9.130,90.0137
9.140,94.4081
9.150,86.9630
9.160,86.6682
9.170,87.7607
9.180,90.5848
9.190,89.2346
9.200,90.8881
9.210,90.6411
9.220,90.9384
9.230,84.4686
9.240,89.0112
9.250,92.5939
9.260,86.3042
9.270,86.4339
9.280,88.1426
9.290,88.5285
9.300,90.6691
9.310,85.8041
9.320,83.7223
9.330,91.4716
9.340,88.2921
9.350,90.1749
9.360,81.9222
9.370,90.5687
9.380,79.4916
9.390,83.4506
9.400,87.5149
9.410,86.8800
9.420,87.3473
9.430,81.0183
9.440,83.8225
9.450,88.8603
9.460,87.4316
9.470,80.6004
9.480,84.5394
9.490,78.1661
9.500,83.6971
9.510,84.6164
9.520,88.3968
9.530,86.2069
9.540,76.8907
9.550,83.2218
9.560,85.7647
9.570,77.1585
9.580,84.2679
9.590,84.7148
9.600,82.7417
9.610,87.8182
9.620,78.2674
9.630,82.3925
9.640,81.7256
9.650,80.8803
9.660,84.3908
9.670,82.7545
9.680,87.1810
9.690,82.5481
9.700,78.0578
9.710,85.9116
9.720,76.8836
9.730,80.7131
9.740,81.8336
9.750,88.3134
9.760,77.4686
9.770,85.8351
9.780,78.7826
9.790,79.4131
9.800,82.6096
9.810,86.5483
9.820,81.5126
9.830,78.8657
9.840,88.2640
9.850,82.9979
9.860,89.6064
9.870,86.8227
9.880,79.1007
9.890,89.6950
9.900,85.9711
9.910,87.4697
9.920,80.3200
9.930,81.4054
9.940,85.0920
9.950,87.5370
9.960,85.4747
9.970,80.4060
9.980,86.3422
9.990,92.1684
10.000,88.6833
10.010,81.9867
10.020,90.4475
10.030,84.2797
10.040,92.7136
10.050,84.6161
10.060,85.0495
10.070,91.3032
10.080,90.9723
10.090,83.8022
10.100,91.8018
10.110,93.1864
10.120,94.8381
10.130,85.3622
10.140,91.5333
10.150,86.9022
10.160,91.8690
10.170,94.7768
10.180,84.9478
10.190,94.4402
10.200,91.7969
10.210,93.3491
10.220,95.2833
10.230,86.6770
10.240,93.7159
10.250,86.7734
10.260,87.2838
10.270,92.4686
10.280,93.3676
10.290,88.9325
10.300,86.4068
10.310,91.0831
10.320,86.9866
10.330,85.7755
10.340,86.0411
10.350,95.1907
10.360,86.3069
10.370,93.9593
10.380,86.0141
10.390,90.5471
10.400,92.2898
10.410,93.3447
10.420,96.7838
10.430,87.8981
10.440,94.9657
10.450,90.2676
10.460,90.3426
10.470,92.7980
10.480,93.4502
10.490,88.5567
10.500,92.1113
10.510,92.0821
10.520,85.3994
10.530,91.7523
10.540,92.0572
10.550,85.5745
10.560,91.1539
10.570,89.6325
10.580,83.7501
10.590,85.3716
10.600,91.0965
10.610,84.3535
10.620,88.0488
10.630,83.2687
10.640,91.0477
10.650,91.8486
10.660,84.5766
10.670,93.2961
10.680,86.3845
10.690,89.8777
10.700,89.8476
10.710,84.9713
10.720,85.4395
10.730,91.6886
10.740,84.9331
10.750,85.1948
10.760,84.4569
10.770,81.5867
10.780,79.8578
10.790,84.7940
10.800,90.9994
10.810,80.6199
10.820,82.2734
10.830,85.1447
10.840,86.2461
10.850,84.4821
10.860,79.9362
10.870,87.0612
10.880,78.3762
10.890,82.4689
10.900,88.3838
10.910,77.7900
10.920,87.3677
10.930,84.3211
10.940,81.5211
10.950,81.7296
10.960,86.5261
10.970,83.4752
10.980,86.7047
10.990,81.6458
11.000,78.5546
11.010,88.0242
11.020,79.3914
11.030,79.8490
11.040,77.1707
11.050,83.5650
11.060,87.2971
11.070,82.4206
11.080,82.1721
11.090,87.0557
11.100,79.5240
11.110,80.7371
11.120,87.8568
11.130,81.7486
11.140,81.4254
11.150,80.4152
11.160,84.2447
11.170,79.9664
11.180,86.0119
11.190,81.0943
11.200,80.4984
11.210,80.0110
11.220,82.5621
11.230,80.4088
11.240,85.4201
11.250,78.0637
11.260,81.9417
11.270,84.6243
11.280,87.6297
11.290,87.4574
11.300,86.4378
11.310,89.9769
11.320,89.3456
11.330,88.0476
11.340,86.9759
11.350,81.3072
11.360,90.3955
11.370,85.7500
11.380,89.5344
11.390,81.2968
11.400,82.5303
11.410,84.5822
11.420,85.3906
11.430,89.3166
11.440,84.0627
11.450,85.1857
11.460,91.3786
11.470,92.0250
11.480,87.9140
11.490,93.1341
11.500,93.8280
11.510,87.1599
11.520,85.9826
11.530,86.9391
11.540,91.8933
11.550,85.1937
11.560,94.9046
11.570,84.1579
11.580,92.0993
11.590,95.3974
11.600,93.6962
11.610,91.4123
11.620,85.4651
11.630,85.7435
11.640,86.1408
11.650,96.6722
11.660,88.2880
11.670,96.0267
11.680,93.3662
11.690,93.6025
11.700,94.8742
11.710,89.5546
11.720,92.2224
11.730,92.9125
11.740,88.7129
11.750,90.0583
11.760,92.4850
11.770,93.1734
11.780,93.1907
11.790,93.5679
11.800,92.5440
11.810,94.4976
11.820,90.5234
11.830,91.7798
11.840,89.5961
11.850,89.9460
11.860,91.7795
11.870,94.9238
11.880,92.4024
11.890,85.8271
11.900,85.7164
11.910,87.2409
11.920,85.4828
11.930,91.8218
11.940,88.8371
11.950,86.4102
11.960,91.0190
11.970,90.0356
11.980,95.4366
11.990,86.7110
12.000,92.0809
12.010,84.6755
12.020,95.4164
12.030,91.7331
12.040,85.9413
12.050,93.6201
12.060,83.6230
12.070,86.5656
12.080,86.0633
12.090,87.2058
12.100,93.0933
12.110,85.5851
12.120,82.7404
12.130,93.1267
12.140,84.6596
12.150,85.7477
12.160,88.9466
12.170,91.4707
12.180,89.4456
12.190,81.9796
12.200,91.0808
12.210,83.2720
12.220,88.3156
12.230,85.7948
12.240,81.3884
12.250,83.4045
12.260,85.2284
12.270,89.4186
12.280,82.6154
12.290,86.4641
12.300,89.7780
12.310,82.7194
12.320,84.2040
12.330,79.4834
12.340,79.0349
12.350,82.2979
12.360,81.4142
12.370,85.5145
12.380,84.6895
12.390,79.7977
12.400,84.4957
12.410,86.0456
12.420,80.5390
12.430,88.2685
12.440,79.7679
12.450,82.7649
12.460,83.2455
12.470,84.9307
12.480,83.9715
12.490,80.8502
12.500,88.3414
12.510,80.2389
12.520,85.3060
12.530,88.3961
12.540,83.3776
12.550,85.7561
12.560,80.9249
12.570,78.9402
12.580,87.9653
12.590,88.3195
12.600,80.1720
12.610,85.8307
12.620,84.3362
12.630,85.8235
12.640,82.8701
12.650,84.0783
12.660,78.7809
12.670,78.5888
12.680,84.2321
12.690,79.1380
12.700,87.3501
12.710,84.5162
12.720,81.0302
12.730,88.1665
12.740,89.0165
12.750,83.3214
12.760,83.4392
12.770,86.6530
12.780,84.1189
12.790,81.1046
12.800,90.1733
12.810,91.6681
12.820,86.0154
12.830,84.3169
12.840,90.4330
12.850,83.1707
12.860,84.2030
12.870,90.5712
12.880,87.4155
12.890,91.2219
12.900,89.5395
12.910,89.8023
12.920,92.2488
12.930,91.8712
12.940,91.6145
12.950,94.2453
12.960,90.4325
12.970,86.8030
12.980,85.6262
12.990,93.9352
13.000,94.5398
13.010,95.0709
13.020,92.9360
13.030,90.2267
13.040,89.5687
13.050,86.0344
13.060,95.4677
13.070,93.4903
13.080,86.2254
13.090,86.2277
13.100,87.9499
13.110,95.3245
13.120,92.5297
13.130,95.1228
13.140,88.7228
13.150,97.1479
13.160,96.8555
13.170,90.9687
13.180,95.8416
13.190,95.2573
13.200,91.0391
13.210,96.1207
13.220,94.0818
13.230,88.4883
13.240,90.8691
13.250,93.8270
13.260,95.6456
13.270,93.7828
13.280,90.3125
13.290,86.2912
13.300,95.3846
13.310,88.9148
13.320,88.7548
13.330,89.2256
13.340,87.2207
13.350,90.8222
13.360,86.8367
13.370,94.3667
13.380,86.6319
13.390,90.5644
13.400,88.8287
13.410,94.2993
13.420,87.7399
13.430,95.2041
13.440,93.8267
13.450,90.1555
13.460,91.8290
13.470,84.0986
13.480,84.8832
13.490,90.7847
13.500,92.1249
13.510,89.4139
13.520,88.2766
13.530,93.4172
13.540,86.8122
13.550,83.6909
13.560,89.7562
13.570,88.2485
13.580,89.4040
13.590,88.3198
13.600,90.5392
13.610,85.4049
13.620,83.3042
13.630,89.3248
13.640,88.7896
13.650,87.6366
13.660,83.3328
13.670,89.9091
13.680,80.7266
13.690,90.7448
13.700,86.1976
13.710,86.7371
13.720,84.3498
13.730,84.8759
13.740,89.1239
13.750,81.8077
13.760,83.2251
13.770,83.5964
13.780,87.6294
13.790,87.8674
13.800,81.2473
13.810,79.3134
13.820,82.1387
13.830,84.2222
13.840,79.8419
13.850,80.0888
13.860,83.1605
13.870,82.1059
13.880,77.9220
13.890,88.0502
13.900,88.8140
13.910,85.7080
13.920,83.5751
13.930,86.7793
13.940,85.2196
13.950,83.9747
13.960,83.0820
13.970,84.4577
13.980,83.3235
13.990,83.2609
14.000,77.4355
14.010,80.2570
14.020,78.0692
14.030,86.1589
14.040,85.2286
14.050,80.7067
14.060,83.6458
14.070,89.4692
14.080,83.9469
14.090,83.1160
14.100,79.3441
14.110,89.5708
14.120,89.6724
14.130,83.7467
14.140,87.5452
14.150,89.0465
14.160,84.7576
14.170,79.9234
14.180,90.7040
14.190,88.5717
14.200,83.5996
14.210,88.4577
14.220,91.0495
14.230,91.6759
14.240,85.3405
14.250,83.1810
14.260,85.5710
14.270,82.2216
14.280,91.0763
14.290,85.5806
14.300,91.2830
14.310,87.5287
14.320,83.0278
14.330,88.4180
14.340,86.9622
14.350,89.4669
14.360,87.7746
14.370,93.6335
14.380,90.9553
14.390,85.3237
14.400,91.5914
14.410,89.0646
14.420,85.6193
14.430,86.8587
14.440,86.5809
14.450,94.8056
14.460,86.5840
14.470,94.7089
14.480,92.1034
14.490,86.2076
14.500,92.3605
14.510,87.9196
14.520,91.1308
14.530,94.4532
14.540,95.7986
14.550,89.0536
14.560,93.0164
14.570,96.9463
14.580,98.1051
14.590,87.2073
14.600,96.1340
14.610,94.5097
14.620,87.6960
14.630,95.7112
14.640,89.5149
14.650,88.3910
14.660,97.5014
14.670,95.4610
14.680,93.0649
14.690,90.2136
14.700,94.5570
14.710,97.2163
14.720,95.3213
14.730,93.9973
14.740,95.2797
14.750,97.0137
14.760,90.0057
14.770,86.8360
14.780,93.6439
14.790,85.7807
14.800,89.8650
14.810,87.3293
14.820,95.7695
14.830,90.7947
14.840,94.7612
14.850,93.9066
14.860,95.5110
14.870,96.0620
14.880,91.2085
14.890,94.7991
14.900,88.0869
14.910,91.5511
14.920,90.0957
14.930,92.9814
14.940,89.8485
14.950,85.9552
14.960,93.6837
14.970,85.1955
14.980,88.1815
14.990,83.6995
15.000,86.6570
15.010,87.3205
15.020,94.1233
15.030,89.6674
15.040,91.6046
15.050,89.3431
15.060,101.2414
15.070,97.6259
15.080,100.2257
15.090,101.1014
15.100,104.8148
15.110,102.7670
15.120,105.7591
15.130,101.7992
15.140,105.4799
15.150,102.7161
15.160,104.9115
15.170,109.1662
15.180,110.9736
15.190,118.7041
15.200,117.6267
15.210,119.4174
15.220,118.4668
15.230,117.9690
15.240,115.5260
15.250,120.2247
15.260,117.4435
15.270,119.1154
15.280,120.4428
15.290,124.1914
15.300,129.3372
15.310,124.8330
15.320,131.1594
15.330,128.8774
15.340,137.8274
15.350,133.7209
15.360,137.5134
15.370,138.2113
15.380,139.4323
15.390,145.1211
15.400,136.5323
15.410,144.8892
15.420,139.4783
15.430,149.1399
15.440,145.5927
15.450,152.7766
15.460,151.6759
15.470,146.2620
15.480,152.8631
15.490,157.0669
15.500,152.8831
15.510,153.4311
15.520,157.9646
15.530,157.2937
15.540,155.4904
15.550,156.5080
15.560,161.1276
15.570,159.4146
15.580,167.7335
15.590,168.6254
15.600,163.8493
15.610,173.9784
15.620,172.1962
15.630,170.9175
15.640,172.7479
15.650,179.0200
15.660,179.4403
15.670,179.3231
15.680,183.2308
15.690,174.5124
15.700,179.1963
15.710,183.8502
15.720,180.7849
15.730,179.3343
15.740,187.8633
15.750,183.2394
15.760,188.7471
15.770,194.1141
15.780,195.6794
15.790,196.6694
15.800,193.9743
15.810,197.7264
15.820,195.5027
15.830,202.6287
15.840,199.1517
15.850,203.6668
15.860,196.3442
15.870,197.5802
15.880,209.3112
15.890,207.3505
15.900,211.8045
15.910,205.6743
15.920,206.0018
15.930,206.6208
15.940,209.3309
15.950,218.6043
15.960,213.6029
15.970,218.4328
15.980,220.5059
15.990,222.5127
16.000,217.2730
16.010,225.6683
16.020,218.8983
16.030,221.9889
16.040,224.0447
16.050,222.6629
16.060,219.1103
16.070,219.2161
16.080,220.2608
16.090,223.1596
16.100,225.8815
16.110,218.3615
16.120,219.7501
16.130,221.4068
16.140,222.4436
16.150,221.9300
16.160,221.9754
16.170,217.0843
16.180,218.4463
16.190,219.9486
16.200,216.7022
16.210,216.1265
16.220,223.2607
16.230,223.4630
16.240,216.1322
16.250,215.9732
16.260,224.6842
16.270,218.3072
16.280,218.1553
16.290,217.7494
16.300,223.8570
16.310,223.8575
16.320,225.6409
16.330,221.7623
16.340,222.4241
16.350,219.6578
16.360,223.3828
16.370,222.7771
16.380,225.0828
16.390,218.8786
16.400,220.0382
16.410,220.7543
16.420,225.0797
16.430,221.9783
16.440,217.9517
16.450,224.9194
16.460,220.3289
16.470,219.5707
16.480,216.5516
16.490,224.5326
16.500,217.0648
16.510,214.9317
16.520,220.5047
16.530,222.3590
16.540,219.0822
16.550,224.4699
16.560,216.9361
16.570,224.1231
16.580,220.1027
16.590,222.6864
16.600,214.9510
16.610,221.6432
16.620,221.1233
16.630,219.0552
16.640,215.4772
16.650,217.6597
16.660,218.0416
16.670,224.8410
16.680,224.3208
16.690,223.6234
16.700,215.1709
16.710,225.1950
16.720,218.5070
16.730,223.7824
16.740,224.5472
16.750,216.3514
16.760,220.2564
16.770,220.0454
16.780,219.9140
16.790,225.3676
16.800,225.0867
16.810,217.5795
16.820,215.2216
16.830,218.4770
16.840,219.5893
16.850,218.4760
16.860,219.4717
16.870,222.8143
16.880,224.6503
16.890,226.0362
16.900,219.8684
16.910,215.7179
16.920,218.5809
16.930,217.0078
16.940,215.4107
16.950,218.9390
16.960,217.6873
16.970,226.6726
16.980,220.1460
16.990,219.5788
17.000,85.7289
17.010,82.4400
17.020,90.0220
17.030,85.3241
17.040,85.5501
17.050,89.9007
17.060,86.6736
17.070,92.0552
17.080,85.8527
17.090,82.6725
17.100,91.6027
17.110,92.0265
17.120,93.3682
17.130,85.5401
17.140,92.2493
17.150,90.7112
17.160,92.4084
17.170,86.9712
17.180,93.9267
17.190,92.8011
17.200,85.7797
17.210,92.6386
17.220,94.9525
17.230,88.7865
17.240,94.6655
17.250,87.1581
17.260,92.7482
17.270,93.0762
17.280,93.4235
17.290,95.9755
17.300,87.1224
17.310,88.1079
17.320,86.6338
17.330,86.0403
17.340,95.7185
17.350,95.7469
17.360,95.1800
17.370,96.8331
17.380,89.3530
17.390,94.5204
17.400,90.7517
17.410,92.8717
17.420,95.3246
17.430,89.4727
17.440,89.8154
17.450,92.7359
17.460,89.8679
17.470,93.8681
17.480,94.2901
17.490,97.1119
17.500,93.6984
17.510,95.8968
17.520,88.3396
17.530,92.0875
17.540,91.2693
17.550,87.5892
17.560,97.2350
17.570,96.4360
17.580,96.2287
17.590,87.3151
17.600,88.6594
17.610,97.3985
17.620,92.7731
17.630,93.0807
17.640,92.6340
17.650,89.4977
17.660,96.5255
17.670,94.8589
17.680,96.7919
17.690,89.3263
17.700,87.5641
17.710,91.3802
17.720,95.8815
17.730,92.7964
17.740,90.5034
17.750,88.3427
17.760,93.8032
17.770,88.1891
17.780,93.0764
17.790,91.9029
17.800,85.6800
17.810,88.6627
17.820,83.7925
17.830,89.5279
17.840,90.9206
17.850,90.6387
17.860,85.6969
17.870,88.7556
17.880,83.5821
17.890,85.6440
17.900,82.3116
17.910,92.7938
17.920,83.8341
17.930,92.1487
17.940,87.2243
17.950,85.8772
17.960,88.7560
17.970,91.2836
17.980,82.1975
17.990,86.8023
18.000,90.6524
18.010,80.5657
18.020,85.4202
18.030,89.8296
18.040,82.2162
18.050,82.1182
18.060,83.2571
18.070,84.5142
18.080,86.7233
18.090,80.4290
18.100,84.2998
18.110,89.9818
18.120,84.7922
18.130,89.2181
18.140,79.7928
18.150,81.4290
18.160,78.6440
18.170,87.9569
18.180,79.0542
18.190,86.4129
18.200,83.3892
18.210,87.4864
18.220,84.2047
18.230,81.0435
18.240,84.9278
18.250,80.3381
18.260,89.0962
18.270,87.4020
18.280,78.8342
18.290,82.4419
18.300,84.6343
18.310,89.7584
18.320,86.7450
18.330,84.5911
18.340,85.6128
18.350,87.1026
18.360,83.6122
18.370,83.3500
18.380,86.6150
18.390,80.5015
18.400,84.0911
18.410,91.1665
18.420,80.1443
18.430,91.5940
18.440,84.7109
18.450,89.4462
18.460,90.3800
18.470,82.0133
18.480,92.2991
18.490,91.2718
18.500,83.3019
18.510,85.7437
18.520,91.7633
18.530,88.6715
18.540,88.0044
18.550,82.8008
18.560,94.1431
18.570,91.9777
18.580,83.1899
18.590,87.4026
18.600,88.9955
18.610,84.9165
18.620,85.1064
18.630,86.9929
18.640,93.0493
18.650,93.0637
18.660,90.2343
18.670,89.5300
18.680,85.3105
18.690,95.6775
18.700,89.9701
18.710,86.2569
18.720,87.0157
18.730,94.3685
18.740,93.4242
18.750,95.7579
18.760,96.7438
18.770,93.8005
18.780,93.7043
18.790,97.4087
18.800,98.4790
18.810,87.4622
18.820,89.8700
18.830,95.5788
18.840,97.1750
18.850,93.8135
18.860,97.4659
18.870,92.8838
18.880,96.0656
18.890,95.7750
18.900,95.6214
18.910,93.2604
18.920,97.8590
18.930,90.8948
18.940,94.8085
18.950,96.5552
18.960,94.3387
18.970,91.9562
18.980,93.7390
18.990,97.2841
19.000,90.6042
19.010,97.6193
19.020,92.7535
19.030,90.3369
19.040,90.8990
19.050,87.2862
19.060,94.9498
19.070,95.8449
19.080,97.6970
19.090,94.1657
19.100,92.5653
19.110,93.8565
19.120,87.9484
19.130,90.8992
19.140,94.9566
19.150,88.7376
19.160,95.1180
19.170,93.3123
19.180,89.9741
19.190,87.4068
19.200,87.7810
19.210,95.7682
19.220,93.6671
19.230,84.4143
19.240,89.5551
19.250,93.0298
19.260,84.0370
19.270,83.9420
19.280,89.7881
19.290,88.7429
19.300,84.1125
19.310,84.3328
19.320,88.1623
19.330,90.0585
19.340,84.1057
19.350,87.3561
19.360,89.7870
19.370,86.5497
19.380,91.4244
19.390,87.7064
19.400,89.9157
19.410,88.9808
19.420,80.9961
19.430,89.0104
19.440,87.6852
19.450,82.9823
19.460,84.6326
19.470,79.7923
19.480,90.8810
19.490,89.9061
19.500,82.2454
19.510,81.8493
19.520,87.8595
19.530,86.0842
19.540,82.4597
19.550,89.8892
19.560,80.8751
19.570,86.2791
19.580,80.2900
19.590,85.6750
19.600,84.0834
19.610,90.0921
19.620,89.3642
19.630,89.8327
19.640,88.7777
19.650,88.7161
19.660,84.2212
19.670,82.1732
19.680,88.0752
19.690,83.9445
19.700,86.0982
19.710,80.5011
19.720,80.9638
19.730,88.7679
19.740,85.0569
19.750,80.4066
19.760,88.1732
19.770,87.3865
19.780,79.5727
19.790,87.8634
19.800,89.6427
19.810,81.8080
19.820,81.2562
19.830,88.5600
19.840,91.6901
19.850,86.8544
19.860,84.6724
19.870,86.6051
19.880,87.1274
19.890,90.6300
19.900,82.0542
19.910,92.2894
19.920,87.9591
19.930,88.2382
19.940,82.6343
19.950,91.1689
19.960,88.1485
19.970,88.8633
19.980,87.0786
19.990,89.6334
20.000,85.6250
20.010,89.1637
20.020,84.9234
20.030,88.5429
20.040,95.3743
20.050,93.2326
20.060,88.5645
20.070,93.4528
20.080,95.3353
20.090,88.2597
20.100,92.2355
20.110,93.5424
20.120,96.2034
20.130,92.3531
20.140,87.6387
20.150,91.3969
20.160,91.0696
20.170,90.6353
20.180,87.5918
20.190,92.5743
20.200,88.0082
20.210,92.8527
20.220,89.1460
20.230,94.3661
20.240,98.4634
20.250,98.4753
20.260,90.0663
20.270,95.1745
20.280,94.6802
20.290,96.7795
20.300,98.9003
20.310,88.6787
20.320,91.0493
20.330,93.4696
20.340,88.3263
20.350,94.9447
20.360,93.4787
20.370,94.2229
20.380,91.8365
20.390,93.1792
20.400,98.2355
20.410,89.6722
20.420,91.4699
20.430,94.5397
20.440,96.6089
20.450,96.6301
20.460,93.8232
20.470,96.5581
20.480,87.7427
20.490,87.6967
20.500,94.3817
20.510,88.6155
20.520,87.4832
20.530,88.5575
20.540,92.6304
20.550,97.6297
20.560,87.6335
20.570,94.9281
20.580,96.7820
20.590,91.6061
20.600,87.1916
20.610,87.8468
20.620,92.0618
20.630,91.4481
20.640,94.4310
20.650,89.6069
20.660,85.9409
20.670,95.2958
20.680,92.4644
20.690,95.1253
20.700,92.2435
20.710,92.3923
20.720,93.3575
20.730,89.3143
20.740,86.8315
20.750,87.9277
20.760,91.1400
20.770,89.4163
20.780,92.6108
20.790,87.8747
20.800,89.4992
20.810,91.4369
20.820,88.0603
20.830,81.3227
20.840,84.3496
20.850,90.0766
20.860,83.7787
20.870,88.6239
20.880,90.1374
20.890,88.7998
20.900,88.3321
20.910,82.1909
20.920,81.5016
20.930,86.1524
20.940,84.6662
20.950,83.1052
20.960,86.5402
20.970,87.5877
20.980,79.8483
20.990,87.8347
21.000,79.3495
21.010,89.8712
21.020,84.0265
21.030,84.3486
21.040,83.7499
21.050,79.8521
21.060,89.1437
21.070,89.6656
21.080,82.5938
21.090,85.4539
21.100,87.4393
21.110,83.6146
21.120,90.2705
21.130,86.0557
21.140,82.4876
21.150,82.3884
21.160,87.2049
21.170,83.1174
21.180,84.8801
21.190,88.7054
21.200,83.2025
21.210,81.9069
21.220,81.9019
21.230,88.2433
21.240,81.5792
21.250,82.6550
21.260,85.8678
21.270,89.4414
21.280,92.1997
21.290,82.0980
21.300,86.7343
21.310,85.5923
21.320,90.7274
21.330,89.8115
21.340,85.9827
21.350,86.5572
21.360,90.0164
21.370,92.4059
21.380,94.0161
21.390,83.1504
21.400,87.3248
21.410,88.2193
21.420,83.9959
21.430,90.7614
21.440,87.0732
21.450,93.9078
21.460,89.0190
21.470,86.9847
21.480,94.8983
21.490,94.5505
21.500,90.0787
21.510,88.4770
21.520,93.4128
21.530,88.1154
21.540,91.5742
21.550,89.5604
21.560,89.6646
21.570,90.8140
21.580,88.4203
21.590,91.2002
21.600,92.6510
21.610,97.8902
21.620,96.6623
21.630,95.1771
21.640,88.0614
21.650,90.7210
21.660,97.3570
21.670,98.2451
21.680,92.6393
21.690,98.8167
21.700,99.3415
21.710,95.9027
21.720,90.0171
21.730,98.9513
21.740,94.8576
21.750,90.5432
21.760,89.8950
21.770,95.8441
21.780,97.8884
21.790,91.6852
21.800,93.1997
21.810,93.6568
21.820,92.4421
21.830,90.3608
21.840,90.9790
21.850,88.1352
21.860,93.1851
21.870,91.5428
21.880,97.4971
21.890,93.4877
21.900,98.6104
21.910,88.0597
21.920,97.8587
21.930,91.7784
21.940,89.4569
21.950,93.2959
21.960,98.3511
21.970,87.7343
21.980,87.8359
21.990,97.7171
22.000,95.3159
22.010,87.2699
22.020,87.6068
22.030,92.4451
22.040,90.3391
22.050,86.9742
22.060,85.7656
22.070,94.3154
22.080,86.4159
22.090,94.0602
22.100,88.4273
22.110,90.9094
22.120,94.9481
22.130,91.7086
22.140,90.3896
22.150,89.8157
22.160,90.9201
22.170,87.1743
22.180,93.0640
22.190,83.9012
22.200,94.0718
22.210,93.0978
22.220,83.9367
22.230,89.5982
22.240,91.2661
22.250,85.0440
22.260,90.6934
22.270,92.9024
22.280,82.4822
22.290,86.9036
22.300,82.0113
22.310,91.0851
22.320,89.2052
22.330,91.4184
22.340,86.1977
22.350,89.3125
22.360,87.7864
22.370,84.4935
22.380,83.5660
22.390,90.0214
22.400,85.8579
22.410,79.4792
22.420,89.2635
22.430,89.4705
22.440,86.0138
22.450,82.9374
22.460,90.5796
22.470,85.3909
22.480,90.0909
22.490,90.7271
22.500,86.1756
22.510,85.3158
22.520,83.6546
22.530,83.1707
22.540,83.8853
22.550,87.1615
22.560,80.4734
22.570,87.1737
22.580,90.5263
22.590,80.9533
22.600,84.6864
22.610,89.7967
22.620,80.1542
22.630,80.3787
22.640,86.4302
22.650,88.5735
22.660,90.5720
22.670,82.9272
22.680,89.7733
22.690,80.7689
22.700,82.7595
22.710,86.4316
22.720,86.5348
22.730,85.2180
22.740,85.4614
22.750,90.6941
22.760,90.8152
22.770,86.6108
22.780,93.7569
22.790,93.7822
22.800,91.7886
22.810,94.3220
22.820,94.2577
22.830,88.6903
22.840,88.8261
22.850,86.3363
22.860,95.0368
22.870,92.9865
22.880,89.4166
22.890,86.3857
22.900,95.4055
22.910,87.1914
22.920,91.0240
22.930,94.2539
22.940,85.8758
22.950,89.8522
22.960,96.7725
22.970,88.6791
22.980,89.8167
22.990,95.5666
23.000,88.2052
23.010,92.8006
23.020,91.1384
23.030,92.2248
23.040,96.2348
23.050,94.3663
23.060,93.4578
23.070,93.3033
23.080,93.2936
23.090,89.6294
23.100,92.8486
23.110,90.4691
23.120,88.8045
23.130,91.1136
23.140,89.9046
23.150,89.6774
23.160,99.2638
23.170,95.7468
23.180,94.7066
23.190,91.8783
23.200,89.1784
23.210,95.1781
23.220,95.8910
23.230,89.8047
23.240,91.1555
23.250,96.9881
23.260,91.5869
23.270,96.0555
23.280,97.9450
23.290,98.8935
23.300,94.3287
23.310,92.4787
23.320,89.0897
23.330,96.1498
23.340,89.2924
23.350,95.5654
23.360,91.6038
23.370,98.1812
23.380,94.0466
23.390,90.1437
23.400,87.2233
23.410,91.4778
23.420,95.3752
23.430,95.5600
23.440,90.6100
23.450,91.6138
23.460,92.5468
23.470,94.6395
23.480,86.0573
23.490,90.5101
23.500,87.2422
23.510,94.1428
23.520,85.8035
23.530,94.8479
23.540,89.8549
23.550,87.6102
23.560,84.5619
23.570,93.0902
23.580,84.1265
23.590,85.5195
23.600,91.6380
23.610,92.0003
23.620,92.9510
23.630,89.7869
23.640,93.6495
23.650,92.2477
23.660,84.9562
23.670,85.3784
23.680,85.6867
23.690,85.3117
23.700,88.6395
23.710,90.9374
23.720,81.6872
23.730,82.3558
23.740,87.5386
23.750,85.3687
23.760,91.3538
23.770,80.6719
23.780,90.1377
23.790,84.6172
23.800,85.3685
23.810,87.7650
23.820,83.2802
23.830,86.7298
23.840,82.1091
23.850,83.8599
23.860,82.6227
23.870,87.9880
23.880,80.4401
23.890,81.0328
23.900,90.5466
23.910,83.8703
23.920,89.1926
23.930,86.7651
23.940,89.4704
23.950,82.4997
23.960,80.2416
23.970,82.4992
23.980,84.6226
23.990,90.9200
24.000,80.1920
24.010,90.4756
24.020,84.0166
24.030,88.3251
24.040,90.8142
24.050,86.8496
24.060,88.1635
24.070,81.7250
24.080,85.8141
24.090,89.4350
24.100,86.1381
24.110,82.3521
24.120,85.5756
24.130,86.3627
24.140,83.0811
24.150,83.6486
24.160,90.8277
24.170,87.0133
24.180,83.1490
24.190,92.9939
24.200,84.8781
24.210,87.3553
24.220,90.7211
24.230,86.4462
24.240,93.7055
24.250,94.7508
24.260,85.8301
24.270,84.4934
24.280,85.4345
24.290,94.2952
24.300,84.7314
24.310,90.0646
24.320,93.6683
24.330,86.6786
24.340,91.7111
24.350,91.2759
24.360,89.0913
24.370,92.3348
24.380,97.2780
24.390,96.2763
24.400,90.1257
24.410,98.0266
24.420,86.8512
24.430,92.1378
24.440,89.3850
24.450,95.5131
24.460,95.2097
24.470,95.8328
24.480,91.3640
24.490,97.1354
24.500,91.6696
24.510,95.2101
24.520,94.1394
24.530,90.1215
24.540,89.2904
24.550,98.8254
24.560,99.2141
24.570,93.2223
24.580,99.4563
24.590,95.5618
24.600,95.8163
24.610,94.1404
24.620,91.5887
24.630,95.4381
24.640,99.9442
24.650,98.4925
24.660,92.6980
24.670,91.2603
24.680,93.1095
24.690,93.7223
24.700,96.7822
24.710,91.1134
24.720,98.5169
24.730,89.2052
24.740,95.6646
24.750,92.8120
24.760,90.3889
24.770,89.8544
24.780,90.3940
24.790,99.1866
24.800,97.3274
24.810,95.8413
24.820,93.9921
24.830,95.7877
24.840,90.1035
24.850,92.1442
24.860,96.9050
24.870,90.4866
24.880,88.8726
24.890,92.9265
24.900,90.0568
24.910,87.7850
24.920,90.2585
24.930,85.7620
24.940,89.1453
24.950,93.4151
24.960,92.3632
24.970,95.9164
24.980,92.9167
24.990,90.9475
25.000,87.8885
25.010,87.1159
25.020,88.0073
25.030,94.3743
25.040,94.7061
25.050,88.7939
25.060,84.4699
25.070,84.7916
25.080,89.8349
25.090,85.4989
25.100,93.3579
25.110,84.5369
25.120,92.0862
25.130,83.3463
25.140,87.1854
25.150,88.4404
25.160,89.5979
25.170,90.6367
25.180,86.0248
25.190,86.1486
25.200,92.0415
25.210,88.3373
25.220,83.7733
25.230,82.2123
25.240,81.3779
25.250,84.6615
25.260,86.3028
25.270,83.9750
25.280,82.3856
25.290,81.8468
25.300,90.8635
25.310,80.9361
25.320,81.6172
25.330,82.6856
25.340,90.3498
25.350,90.3986
25.360,84.1812
25.370,80.7796
25.380,85.2842
25.390,86.3812
25.400,89.7301
25.410,89.0351
25.420,88.6921
25.430,84.8309
25.440,86.4035
25.450,83.9394
25.460,81.1490
25.470,80.8047
25.480,88.5147
25.490,88.7610
25.500,82.3438
25.510,84.9484
25.520,91.8911
25.530,81.7333
25.540,83.6157
25.550,87.3632
25.560,88.7111
25.570,82.4800
25.580,92.9936
25.590,85.0074
25.600,88.2541
25.610,85.7853
25.620,94.2327
25.630,88.2048
25.640,87.7932
25.650,91.8657
25.660,86.9778
25.670,94.9536
25.680,83.8258
25.690,93.7283
25.700,93.3964
25.710,89.6751
25.720,91.8914
25.730,94.1477
25.740,94.1717
25.750,86.8277
25.760,94.5550
25.770,89.4491
25.780,93.4861
25.790,86.2787
25.800,89.0426
25.810,90.6385
25.820,92.1668
25.830,90.9979
25.840,91.5054
25.850,95.4304
25.860,96.3343
25.870,94.8537
25.880,98.0831
25.890,93.5577
25.900,95.9068
25.910,97.0108
25.920,89.8115
25.930,94.2746
25.940,97.5366
25.950,89.1965
25.960,97.9693
25.970,96.5413
25.980,95.3592
25.990,94.5384
26.000,97.3081
26.010,92.5005
26.020,90.2763
26.030,90.6273
26.040,90.9035
26.050,91.3741
26.060,99.8214
26.070,93.3255
26.080,94.8627
26.090,96.7235
26.100,94.4683
26.110,96.1447
26.120,89.4332
26.130,91.0320
26.140,92.5282
26.150,94.1340
26.160,95.2776
26.170,92.3815
26.180,96.9962
26.190,92.7306
26.200,97.6675
26.210,97.3914
26.220,96.7040
26.230,99.5085
26.240,98.4760
26.250,91.7465
26.260,98.7275
26.270,90.9714
26.280,96.7697
26.290,98.0918
26.300,91.5346
26.310,96.1937
26.320,92.9512
26.330,96.8663
26.340,95.1795
26.350,93.3123
26.360,89.5313
26.370,87.7183
26.380,89.0349
26.390,90.8055
26.400,89.8436
26.410,86.7931
26.420,91.9486
26.430,86.0714
26.440,85.7482
26.450,85.2062
26.460,95.1805
26.470,94.0983
26.480,93.5112
26.490,94.5595
26.500,94.6002
26.510,84.6674
26.520,86.1861
26.530,92.1351
26.540,84.4414
26.550,90.8130
26.560,91.6113
26.570,92.1640
26.580,85.3476
26.590,89.8542
26.600,85.2981
26.610,81.8499
26.620,82.1712
26.630,91.7364
26.640,87.7985
26.650,86.1104
26.660,87.5344
26.670,89.5116
26.680,90.0402
26.690,87.3562
26.700,89.7618
26.710,82.7244
26.720,87.6106
26.730,88.5691
26.740,85.2496
26.750,84.1199
26.760,82.6974
26.770,89.1897
26.780,82.2660
26.790,91.3928
26.800,89.3582
26.810,88.5500
26.820,84.6542
26.830,83.3175
26.840,80.6951
26.850,86.0772
26.860,81.7451
26.870,86.6434
26.880,87.2577
26.890,89.7720
26.900,85.1990
26.910,89.3212
26.920,85.3756
26.930,90.1733
26.940,83.6936
26.950,91.3456
26.960,90.4378
26.970,91.8611
26.980,88.9364
26.990,91.7104
27.000,92.1462
27.010,92.1092
27.020,88.7012
27.030,92.8062
27.040,85.4556
27.050,92.4935
27.060,88.7215
27.070,87.6088
27.080,92.7451
27.090,84.2941
27.100,94.3308
27.110,94.6043
27.120,93.8958
27.130,86.9779
27.140,89.8930
27.150,85.1155
27.160,89.6388
27.170,86.3069
27.180,89.9397
27.190,92.5851
27.200,87.6506
27.210,88.1411
27.220,89.2905
27.230,92.2261
27.240,93.5216
27.250,88.9047
27.260,94.9189
27.270,96.6177
27.280,98.9953
27.290,99.1143
27.300,89.9667
27.310,91.3407
27.320,99.5071
27.330,98.5031
27.340,93.5531
27.350,93.4929
27.360,99.8222
27.370,94.0156
27.380,98.1064
27.390,98.3291
27.400,94.1149
27.410,96.1203
27.420,90.8760
27.430,100.7908
27.440,100.1947
27.450,95.4432
27.460,91.1027
27.470,92.8841
27.480,94.8485
27.490,96.2985
27.500,94.8171
27.510,91.5987
27.520,96.8860
27.530,92.9808
27.540,98.0053
27.550,94.8836
27.560,90.4570
27.570,97.7689
27.580,98.2367
27.590,96.8460
27.600,95.1915
27.610,90.4442
27.620,94.9155
27.630,99.8978
27.640,93.0222
27.650,97.3651
27.660,94.1506
27.670,90.6694
27.680,88.4559
27.690,98.4631
27.700,99.4493
27.710,92.4116
27.720,95.0988
27.730,91.4519
27.740,92.2984
27.750,91.7603
27.760,98.0185
27.770,96.1296
27.780,92.7954
27.790,93.2513
27.800,95.3870
27.810,88.3392
27.820,96.8157
27.830,96.4198
27.840,96.6523
27.850,89.6250
27.860,93.0844
27.870,88.3225
27.880,95.1134
27.890,84.7937
27.900,90.0456
27.910,88.8094
27.920,95.2918
27.930,94.7587
27.940,88.3271
27.950,89.9360
27.960,93.0578
27.970,92.4636
27.980,85.1153
27.990,91.0669
28.000,88.2518
28.010,88.2478
28.020,87.5483
28.030,85.3541
28.040,81.9641
28.050,86.9599
28.060,89.6110
28.070,82.0764
28.080,85.8481
28.090,84.1187
28.100,87.0219
28.110,80.9186
28.120,82.2670
28.130,82.5456
28.140,88.2807
28.150,85.5085
28.160,83.0165
28.170,80.6070
28.180,87.8550
28.190,87.5156
28.200,81.8617
28.210,84.2457
28.220,85.6901
28.230,85.2707
28.240,82.3638
28.250,81.0251
28.260,83.6706
28.270,84.4761
28.280,85.8596
28.290,80.9175
28.300,83.7350
28.310,87.5677
28.320,92.0842
28.330,84.4845
28.340,91.2517
28.350,91.1657
28.360,81.8496
28.370,87.4973
28.380,88.6700
28.390,88.0043
28.400,84.4700
28.410,88.8202
28.420,89.6406
28.430,86.6789
28.440,82.7740
28.450,87.9044
28.460,84.5483
28.470,94.3017
28.480,91.2757
28.490,92.6708
28.500,87.2033
28.510,87.8384
28.520,85.5358
28.530,91.6537
28.540,90.1490
28.550,94.9790
28.560,95.4034
28.570,87.0489
28.580,93.0845
28.590,87.3629
28.600,91.3384
28.610,94.9232
28.620,91.8176
28.630,90.4113
28.640,96.6044
28.650,97.8153
28.660,92.8528
28.670,98.3412
28.680,93.1970
28.690,90.8967
28.700,97.3174
28.710,92.2913
28.720,94.0744
28.730,95.7313
28.740,90.6707
28.750,96.8000
28.760,94.0632
28.770,93.8735
28.780,97.3686
28.790,99.7278
28.800,96.7272
28.810,99.7221
28.820,94.8323
28.830,98.2916
28.840,91.8029
28.850,96.9026
28.860,91.5964
28.870,95.7275
28.880,97.9387
28.890,97.4224
28.900,100.1813
28.910,97.0480
28.920,98.6079
28.930,97.2337
28.940,90.2516
28.950,100.3787
28.960,94.1706
28.970,101.4821
28.980,92.1147
28.990,94.6096
29.000,100.0850
29.010,97.9244
29.020,99.7255
29.030,91.6473
29.040,92.4985
29.050,94.6810
29.060,99.9053
29.070,90.9496
29.080,94.8379
29.090,89.7832
29.100,93.7600
29.110,99.5335
29.120,89.4065
29.130,89.9503
29.140,91.5499
29.150,94.7469
29.160,91.6515
29.170,95.0976
29.180,88.3674
29.190,89.0718
29.200,94.5841
29.210,98.0725
29.220,92.9664
29.230,97.9337
29.240,89.4913
29.250,88.7022
29.260,95.2869
29.270,86.6700
29.280,90.6800
29.290,90.5714
29.300,91.2567
29.310,91.0890
29.320,90.9748
29.330,90.0581
29.340,94.5871
29.350,86.6235
29.360,92.0347
29.370,86.5043
29.380,92.3180
29.390,92.3909
29.400,90.5201
29.410,84.8179
29.420,89.4741
29.430,88.6241
29.440,88.0113
29.450,90.8070
29.460,82.4015
29.470,83.1465
29.480,84.5005
29.490,91.5869
29.500,90.3698
29.510,91.8745
29.520,87.4000
29.530,90.0358
29.540,89.6006
29.550,84.9816
29.560,84.2014
29.570,90.2019
29.580,86.4815
29.590,85.0523
29.600,85.5373
29.610,87.5137
29.620,84.1752
29.630,90.2203
29.640,86.8893
29.650,85.7097
29.660,85.5947
29.670,84.5292
29.680,83.8637
29.690,84.1429
29.700,83.9983
29.710,84.3879
29.720,87.6287
29.730,88.6041
29.740,88.8277
29.750,89.0196
29.760,91.9976
29.770,84.1749
29.780,89.3891
29.790,91.0372
29.800,85.3435
29.810,86.5393
29.820,84.6273
29.830,84.0530
29.840,82.6280
29.850,92.3124
29.860,85.4964
29.870,89.3161
29.880,88.0846
29.890,90.9687
29.900,90.1129
29.910,85.1561
29.920,93.4483
29.930,85.7228
29.940,93.8192
29.950,94.4414
29.960,88.9899
29.970,88.2240
29.980,95.8895
29.990,93.6175
30.000,92.0675
30.010,96.2069
30.020,89.2827
30.030,95.8112
30.040,97.4438
30.050,100.3139
30.060,95.0953
30.070,101.5909
30.080,107.3492
30.090,103.8260
30.100,103.3781
30.110,109.1594
30.120,109.4705
30.130,108.7982
30.140,108.8518
30.150,107.6815
30.160,116.9295
30.170,118.6957
30.180,117.0906
30.190,120.3626
30.200,123.3140
30.210,115.0796
30.220,119.2749
30.230,120.9990
30.240,126.6841
30.250,120.2501
30.260,130.4817
30.270,125.7534
30.280,127.5986
30.290,136.2154
30.300,136.7759
30.310,136.9720
30.320,140.6600
30.330,137.3944
30.340,142.3167
30.350,142.6623
30.360,135.1034
30.370,140.3593
30.380,137.9566
30.390,140.2887
30.400,142.1986
30.410,143.9136
30.420,147.3067
30.430,154.4591
30.440,148.1898
30.450,156.6427
30.460,156.2557
30.470,157.3067
30.480,159.0392
30.490,158.3488
30.500,163.6884
30.510,158.7212
30.520,159.6380
30.530,167.6046
30.540,170.3971
30.550,167.1237
30.560,169.6146
30.570,173.1966
30.580,174.1640
30.590,172.6353
30.600,169.7121
30.610,179.2243
30.620,173.1644
30.630,175.7126
30.640,179.2603
30.650,175.9222
30.660,178.9529
30.670,187.9834
30.680,182.9471
30.690,188.1325
30.700,182.2236
30.710,184.6022
30.720,190.4785
30.730,196.6811
30.740,188.9035
30.750,194.9110
30.760,197.3666
30.770,194.2721
30.780,201.5185
30.790,195.5923
30.800,201.6887
30.810,198.5391
30.820,200.6198
30.830,207.8714
30.840,211.6173
30.850,206.6315
30.860,210.1218
30.870,216.7459
30.880,207.0185
30.890,216.1734
30.900,220.1106
30.910,210.8118
30.920,217.0884
30.930,217.6513
30.940,221.9852
30.950,217.3134
30.960,226.4885
30.970,225.3382
30.980,229.1146
30.990,225.3091
31.000,232.0124
31.010,227.4542
31.020,223.9864
31.030,226.5700
31.040,231.4771
31.050,232.2851
31.060,223.7980
31.070,229.7225
31.080,226.2442
31.090,233.0951
31.100,229.7654
31.110,228.2254
31.120,231.9042
31.130,225.1834
31.140,232.4945
31.150,224.1166
31.160,228.3092
31.170,232.0343
31.180,227.6646
31.190,232.2027
31.200,227.1781
31.210,231.6631
31.220,227.1321
31.230,225.2688
31.240,224.5080
31.250,226.6031
31.260,226.9464
31.270,228.4489
31.280,224.4493
31.290,231.1071
31.300,231.5309
31.310,234.4578
31.320,226.6743
31.330,234.2895
31.340,234.4276
31.350,225.4140
31.360,232.2616
31.370,228.3180
31.380,228.7585
31.390,233.5716
31.400,226.5412
31.410,234.2232
31.420,226.5970
31.430,230.7467
31.440,226.9601
31.450,223.7824
31.460,228.5019
31.470,229.3255
31.480,223.5881
31.490,232.5965
31.500,234.2693
31.510,223.6278
31.520,226.1428
31.530,226.5264
31.540,226.4856
31.550,227.7134
31.560,231.4846
31.570,234.0444
31.580,228.6654
31.590,229.5206
31.600,230.4267
31.610,233.3474
31.620,223.8806
31.630,225.0566
31.640,225.6440
31.650,233.2506
31.660,224.6448
31.670,224.3021
31.680,234.3827
31.690,234.8714
31.700,226.6187
31.710,223.4919
31.720,229.4408
31.730,233.9863
31.740,229.8380
31.750,233.1367
31.760,223.6947
31.770,230.3918
31.780,226.7234
31.790,229.8601
31.800,230.5437
31.810,227.7158
31.820,230.4041
31.830,224.8178
31.840,226.7109
31.850,228.5755
31.860,227.7433
31.870,230.4316
31.880,229.7228
31.890,228.2704
31.900,234.3243
31.910,233.5468
31.920,224.4893
31.930,230.6610
31.940,229.0994
31.950,223.9987
31.960,232.1261
31.970,229.4807
31.980,223.9523
31.990,234.7962
32.000,98.6436
32.010,98.0374
32.020,99.0533
32.030,98.9480
32.040,96.9653
32.050,91.5125
32.060,96.4318
32.070,95.0816
32.080,94.3514
32.090,89.0987
32.100,87.3061
32.110,93.7235
32.120,94.1821
32.130,95.7925
32.140,93.6504
32.150,92.2638
32.160,95.4663
32.170,96.5733
32.180,90.1699
32.190,87.4671
32.200,84.9785
32.210,86.6139
32.220,90.6223
32.230,84.7033
32.240,85.7930
32.250,92.6175
32.260,89.7544
32.270,86.6109
32.280,93.2127
32.290,92.6096
32.300,93.7540
32.310,84.8239
32.320,87.0165
32.330,92.4779
32.340,85.8283
32.350,89.7791
32.360,85.9416
32.370,90.5130
32.380,82.9612
32.390,89.6019
32.400,91.5693
32.410,82.7187
32.420,87.1430
32.430,92.7016
32.440,86.1463
32.450,85.0244
32.460,90.8225
32.470,88.3964
32.480,84.3646
32.490,89.5092
32.500,90.0253
32.510,89.5091
32.520,92.6696
32.530,91.0511
32.540,89.5175
32.550,81.8783
32.560,85.2477
32.570,91.5652
32.580,83.9528
32.590,85.8448
32.600,88.9220
32.610,87.4444
32.620,82.1152
32.630,87.3091
32.640,84.7596
32.650,91.7756
32.660,85.2398
32.670,92.7246
32.680,92.4571
32.690,93.5548
32.700,91.1956
32.710,90.5005
32.720,90.1040
32.730,86.9097
32.740,88.2635
32.750,87.0427
32.760,88.6201
32.770,94.2772
32.780,91.8343
32.790,87.5767
32.800,87.4171
32.810,92.8246
32.820,90.2777
32.830,90.1571
32.840,87.2026
32.850,97.6037
32.860,86.6128
32.870,87.6444
32.880,90.5507
32.890,92.8854
32.900,95.2446
32.910,96.3626
32.920,93.6190
32.930,97.1451
32.940,94.5440
32.950,96.7576
32.960,92.6842
32.970,94.9495
32.980,90.4571
32.990,92.6007
33.000,92.3479
33.010,93.9641
33.020,92.7953
33.030,91.7716
33.040,93.2630
33.050,99.1111
33.060,100.7355
33.070,100.7680
33.080,96.4776
33.090,95.5913
33.100,93.9412
33.110,101.3785
33.120,97.8471
33.130,99.8832
33.140,100.2690
33.150,100.0797
33.160,102.0184
33.170,97.3663
33.180,94.5084
33.190,94.7288
33.200,96.3668
33.210,98.4519
33.220,99.1666
33.230,98.3868
33.240,91.0300
33.250,92.8110
33.260,97.7054
33.270,91.6112
33.280,96.4912
33.290,98.2720
33.300,97.7162
33.310,90.8945
33.320,95.3882
33.330,100.7478
33.340,99.3479
33.350,95.8607
33.360,98.0944
33.370,99.1965
33.380,96.2886
33.390,92.3508
33.400,98.5339
33.410,100.8872
33.420,95.3860
33.430,95.0984
33.440,91.6328
33.450,95.0301
33.460,91.1564
33.470,88.6179
33.480,95.9794
33.490,89.3327
33.500,94.7661
33.510,94.7149
33.520,97.7792
33.530,96.0961
33.540,91.4394
33.550,96.0999
33.560,95.3346
33.570,86.9296
33.580,96.4909
33.590,92.7843
33.600,92.4745
33.610,89.6927
33.620,96.0381
33.630,88.0720
33.640,86.6804
33.650,93.5810
33.660,88.5152
33.670,86.0062
33.680,91.8357
33.690,95.6449
33.700,89.3803
33.710,88.6547
33.720,84.7891
33.730,91.8791
33.740,85.6096
33.750,90.9734
33.760,88.6501
33.770,93.1914
33.780,84.5893
33.790,86.7995
33.800,91.9310
33.810,88.5210
33.820,83.2536
33.830,89.5611
33.840,90.3033
33.850,93.2902
33.860,83.1124
33.870,90.3608
33.880,90.2760
33.890,89.5174
33.900,93.0644
33.910,86.7273
33.920,90.8548
33.930,81.7335
33.940,81.8039
33.950,81.7644
33.960,87.0918
33.970,88.4976
33.980,92.0864
33.990,87.7208
34.000,90.3889
34.010,85.5996
34.020,86.4925
34.030,89.9745
34.040,88.6376
34.050,88.0445
34.060,92.9963
34.070,92.3219
34.080,90.6668
34.090,91.4245
34.100,83.8320
34.110,88.7063
34.120,94.9354
34.130,85.2434
34.140,88.1120
34.150,91.6591
34.160,85.8412
34.170,90.0910
34.180,90.1060
34.190,94.8655
34.200,91.2748
34.210,95.5939
34.220,86.5855
34.230,85.3339
34.240,94.1721
34.250,88.2672
34.260,92.9663
34.270,93.8639
34.280,90.5823
34.290,88.2496
34.300,95.7547
34.310,95.5818
34.320,88.2990
34.330,97.3190
34.340,91.3232
34.350,90.5973
34.360,88.6832
34.370,91.3508
34.380,88.9587
34.390,90.9472
34.400,93.8823
34.410,91.0077
34.420,99.9201
34.430,95.8136
34.440,93.2711
34.450,93.0526
34.460,97.0960
34.470,91.4521
34.480,90.7167
34.490,96.3381
34.500,99.8270
34.510,99.4326
34.520,98.2339
34.530,96.6876
34.540,98.0986
34.550,97.7549
34.560,102.2474
34.570,102.5765
34.580,97.9054
34.590,96.0433
34.600,91.1679
34.610,102.0778
34.620,93.7713
34.630,99.6380
34.640,96.0041
34.650,100.5853
34.660,93.0253
34.670,93.3440
34.680,91.3227
34.690,93.2929
34.700,100.2570
34.710,97.5515
34.720,100.7748
34.730,92.3581
34.740,91.2229
34.750,94.1816
34.760,97.2857
34.770,94.7127
34.780,93.9598
34.790,93.6511
34.800,99.8266
34.810,98.6934
34.820,98.3063
34.830,99.0607
34.840,95.5541
34.850,95.4534
34.860,89.9404
34.870,96.4610
34.880,97.7288
34.890,91.1248
34.900,98.5291
34.910,91.1817
34.920,92.1061
34.930,89.2098
34.940,92.6494
34.950,93.0336
34.960,98.5774
34.970,87.4770
34.980,94.7019
34.990,96.5939
35.000,92.2901
35.010,91.5099
35.020,86.3611
35.030,97.5658
35.040,91.8870
35.050,94.7431
35.060,95.6558
35.070,91.4952
35.080,91.4325
35.090,90.7630
35.100,96.1619
35.110,95.6660
35.120,89.3154
35.130,85.8709
35.140,86.1278
35.150,86.9228
35.160,89.1299
35.170,91.3148
35.180,88.2240
35.190,88.7245
35.200,90.3154
35.210,94.2177
35.220,87.0013
35.230,91.6608
35.240,93.7280
35.250,92.5693
35.260,93.5340
35.270,87.1666
35.280,93.8539
35.290,86.0780
35.300,82.3926
35.310,84.3000
35.320,91.5394
35.330,86.4600
35.340,92.8480
35.350,84.2331
35.360,88.4519
35.370,88.4495
35.380,87.0359
35.390,85.6069
35.400,83.8770
35.410,91.9852
35.420,84.6172
35.430,84.9873
35.440,87.2592
35.450,90.6807
35.460,84.8588
35.470,87.9890
35.480,84.5402
35.490,90.8096
35.500,92.8194
35.510,93.9153
35.520,91.1916
35.530,83.7615
35.540,84.8478
35.550,91.7502
35.560,89.7543
35.570,84.1172
35.580,95.5670
35.590,87.9700
35.600,94.0948
35.610,86.6951
35.620,92.7381
35.630,87.5239
35.640,90.2132
35.650,89.3402
35.660,92.3302
35.670,87.0712
35.680,95.5823
35.690,91.8726
35.700,91.5054
35.710,88.9429
35.720,98.4474
35.730,93.0039
35.740,91.0792
35.750,90.2237
35.760,90.5290
35.770,94.7974
35.780,99.0635
35.790,91.7297
35.800,90.1634
35.810,92.9627
35.820,92.3447
35.830,100.2006
35.840,100.4000
35.850,100.7018
35.860,96.2580
35.870,90.8297
35.880,95.5157
35.890,98.5118
35.900,97.6679
35.910,90.6250
35.920,95.3456
35.930,102.1419
35.940,91.4567
35.950,100.3942
35.960,97.6977
35.970,96.4338
35.980,100.2298
35.990,100.2835
36.000,99.9548
36.010,97.1741
36.020,92.2547
36.030,98.2771
36.040,102.3526
36.050,93.9820
36.060,97.3328
36.070,94.7182
36.080,91.6865
36.090,102.5832
36.100,95.3865
36.110,102.1668
36.120,100.1683
36.130,99.5530
36.140,100.6484
36.150,99.6987
36.160,100.2028
36.170,97.3451
36.180,92.6361
36.190,99.1060
36.200,98.1971
36.210,91.9255
36.220,99.2710
36.230,100.5424
36.240,94.5563
36.250,95.5837
36.260,101.2768
36.270,95.2242
36.280,93.4069
36.290,94.4236
36.300,98.7715
36.310,97.7872
36.320,90.3123
36.330,89.8471
36.340,92.3269
36.350,94.7694
36.360,99.4549
36.370,96.8933
36.380,99.3349
36.390,88.1696
36.400,90.8089
36.410,87.5524
36.420,88.8934
36.430,92.6485
36.440,93.4760
36.450,95.9436
36.460,90.7877
36.470,87.1042
36.480,90.7469
36.490,95.7413
36.500,89.7785
36.510,86.2579
36.520,87.0241
36.530,86.9974
36.540,87.2157
36.550,91.3867
36.560,85.5816
36.570,87.8006
36.580,95.5342
36.590,95.4774
36.600,89.4944
36.610,91.6531
36.620,87.9858
36.630,84.4064
36.640,85.8985
36.650,85.9851
36.660,88.5837
36.670,93.0440
36.680,85.2406
36.690,84.3553
36.700,84.8957
36.710,87.5211
36.720,84.3622
36.730,87.3527
36.740,86.2587
36.750,90.7452
36.760,88.9593
36.770,93.5490
36.780,86.6720
36.790,90.9034
36.800,90.2696
36.810,92.2137
36.820,86.0998
36.830,86.6226
36.840,93.3325
36.850,89.4537
36.860,83.3061
36.870,86.9851
36.880,91.2625
36.890,83.2323
36.900,92.3593
36.910,93.3100
36.920,86.9282
36.930,94.1826
36.940,87.7432
36.950,91.1145
36.960,83.7358
36.970,93.3322
36.980,92.4427
36.990,84.4335
37.000,88.5149
37.010,92.9321
37.020,93.2842
37.030,87.7300
37.040,92.2661
37.050,88.5750
37.060,86.5547
37.070,91.1791
37.080,96.0451
37.090,88.2784
37.100,94.6056
37.110,93.9721
37.120,90.7189
37.130,88.1719
37.140,87.4169
37.150,88.2923
37.160,87.9100
37.170,95.0078
37.180,94.5546
37.190,89.9136
37.200,98.7515
37.210,100.0390
37.220,92.2127
37.230,93.9240
37.240,94.4370
37.250,97.0510
37.260,92.5070
37.270,90.4736
37.280,95.4576
37.290,101.2589
37.300,90.8466
37.310,94.2813
37.320,97.8086
37.330,93.2216
37.340,97.3761
37.350,96.1050
37.360,93.2043
37.370,93.3292
37.380,96.7246
37.390,95.5768
37.400,97.0661
37.410,92.6868
37.420,102.5629
37.430,100.6125
37.440,102.5011
37.450,97.3469
37.460,98.9734
37.470,96.0924
37.480,95.0636
37.490,101.8835
37.500,101.1041
37.510,100.4855
37.520,96.9201
37.530,96.6191
37.540,92.4749
37.550,98.8943
37.560,96.4259
37.570,94.9012
37.580,95.0382
37.590,92.6668
37.600,101.0550
37.610,92.5539
37.620,94.8324
37.630,95.7194
37.640,96.6759
37.650,99.7612
37.660,100.6077
37.670,99.2273
37.680,92.0959
37.690,100.0166
37.700,99.8151
37.710,96.6809
37.720,90.8255
37.730,93.9903
37.740,94.6727
37.750,91.0488
37.760,93.7200
37.770,89.6052
37.780,92.2657
37.790,99.3108
37.800,99.4497
37.810,90.0857
37.820,97.6247
37.830,93.1715
37.840,92.4390
37.850,92.0994
37.860,93.1963
37.870,88.9516
37.880,95.9187
37.890,91.7988
37.900,95.7715
37.910,94.8233
37.920,88.9399
37.930,85.9204
37.940,96.0913
37.950,93.2861
37.960,96.0980
37.970,90.0231
37.980,94.3448
37.990,87.6095
38.000,94.3112
38.010,89.7830
38.020,94.1880
38.030,86.1548
38.040,83.9709
38.050,86.5261
38.060,91.8999
38.070,90.2646
38.080,89.0836
38.090,87.4750
38.100,83.8004
38.110,89.8591
38.120,87.6693
38.130,91.3647
38.140,93.9926
38.150,90.1811
38.160,88.8223
38.170,92.1856
38.180,84.9527
38.190,88.9377
38.200,89.4560
38.210,86.9644
38.220,85.6937
38.230,88.1209
38.240,90.6680
38.250,90.5593
38.260,84.4233
38.270,87.3680
38.280,90.6688
38.290,83.7749
38.300,83.4217
38.310,91.7762
38.320,84.3782
38.330,89.8182
38.340,90.8398
38.350,89.1650
38.360,89.8439
38.370,94.9559
38.380,92.2836
38.390,95.0783
38.400,93.1622
38.410,90.9222
38.420,92.5234
38.430,89.9884
38.440,87.6174
38.450,85.8737
38.460,88.2298
38.470,86.6858
38.480,94.7484
38.490,91.0608
38.500,92.6179
38.510,95.5824
38.520,92.2948
38.530,87.2510
38.540,88.9777
38.550,92.5797
38.560,93.2676
38.570,94.9388
38.580,97.6637
38.590,88.2619
38.600,98.3307
38.610,96.4444
38.620,92.3792
38.630,95.4399
38.640,97.8462
38.650,96.4708
38.660,95.7384
38.670,91.4814
38.680,99.0739
38.690,97.1139
38.700,101.0794
38.710,98.5708
38.720,96.1952
38.730,99.6783
38.740,100.0387
38.750,91.0374
38.760,91.0905
38.770,102.6278
38.780,94.3126
38.790,99.8212
38.800,95.2450
38.810,94.6608
38.820,92.3968
38.830,102.2885
38.840,94.9616
38.850,93.9245
38.860,99.2518
38.870,98.5734
38.880,97.7582
38.890,102.0973
38.900,99.0298
38.910,94.7410
38.920,92.2999
38.930,95.8488
38.940,102.3029
38.950,94.7662
38.960,95.8230
38.970,95.1481
38.980,94.3367
38.990,93.4030
39.000,97.9145
39.010,103.4788
39.020,97.7063
39.030,96.0722
39.040,91.8037
39.050,96.4364
39.060,101.4157
39.070,92.0389
39.080,101.2356
39.090,94.7164
39.100,94.8794
39.110,99.6044
39.120,101.1590
39.130,96.5442
39.140,90.4031
39.150,90.2067
39.160,99.8632
39.170,100.8796
39.180,100.7309
39.190,100.6889
39.200,98.7021
39.210,92.8137
39.220,95.6651
39.230,95.1516
39.240,91.3105
39.250,99.3872
39.260,92.9322
39.270,89.0595
39.280,89.0477
39.290,92.9360
39.300,94.6447
39.310,91.5332
39.320,97.6137
39.330,93.1406
39.340,94.7121
39.350,97.1015
39.360,94.9792
39.370,95.2044
39.380,94.5302
39.390,92.2961
39.400,91.0542
39.410,88.0716
39.420,93.8072
39.430,95.7228
39.440,93.4261
39.450,93.5568
39.460,91.1562
39.470,93.1621
39.480,86.4571
39.490,91.0942
39.500,94.9561
39.510,91.4384
39.520,87.5412
39.530,83.9701
39.540,94.1931
39.550,88.7914
39.560,93.3285
39.570,93.9385
39.580,84.7518
39.590,91.0745
39.600,86.2586
39.610,83.4881
39.620,89.8405
39.630,94.6619
39.640,89.6880
39.650,84.5680
39.660,92.8907
39.670,90.3764
39.680,86.7272
39.690,84.0588
39.700,90.1098
39.710,85.5256
39.720,85.8351
39.730,93.1149
39.740,84.4154
39.750,93.0421
39.760,93.4489
39.770,84.0711
39.780,93.7675
39.790,90.9693
39.800,92.4846
39.810,85.0033
39.820,95.3792
39.830,88.6569
39.840,87.0156
39.850,87.6673
39.860,96.6654
39.870,96.7048
39.880,92.7468
39.890,93.4172
39.900,94.1621
39.910,97.2802
39.920,92.4172
39.930,89.0535
39.940,94.0136
39.950,97.3160
39.960,95.9095
39.970,94.7820
39.980,92.9481
39.990,96.6820
40.000,89.7510
40.010,92.2589
40.020,91.3562
40.030,95.9504
40.040,99.4823
40.050,97.2104
40.060,96.2764
40.070,90.0113
40.080,98.3021
40.090,93.5492
40.100,97.3186
40.110,98.5886
40.120,99.2065
40.130,96.3875
40.140,100.2014
40.150,102.2785
40.160,99.2705
40.170,98.0429
40.180,98.4014
40.190,102.3540
40.200,92.7055
40.210,100.9512
40.220,98.4465
40.230,94.1481
40.240,97.9225
40.250,98.7217
40.260,101.8487
40.270,99.5123
40.280,93.5420
40.290,99.4980
40.300,93.0209
40.310,93.8608
40.320,93.5942
40.330,100.5610
40.340,101.5864
40.350,93.1288
40.360,101.6647
40.370,101.1385
40.380,96.8609
40.390,101.4422
40.400,100.3864
40.410,99.4132
40.420,93.3843
40.430,97.1496
40.440,102.9961
40.450,95.3642
40.460,100.3215
40.470,97.2751
40.480,94.3183
40.490,94.2628
40.500,98.1106
40.510,101.0929
40.520,98.1535
40.530,93.7464
40.540,102.1572
40.550,101.9475
40.560,95.8588
40.570,98.1506
40.580,92.4207
40.590,100.6696
40.600,94.5959
40.610,100.4613
40.620,91.9655
40.630,95.2165
40.640,98.9203
40.650,94.9390
40.660,100.1810
40.670,89.4685
40.680,98.2966
40.690,92.7549
40.700,99.0390
40.710,89.6071
40.720,91.9497
40.730,91.2295
40.740,93.3734
40.750,95.7380
40.760,92.7938
40.770,94.1772
40.780,87.0018
40.790,97.7971
40.800,89.5151
40.810,95.6977
40.820,95.6258
40.830,86.9016
40.840,93.9583
40.850,88.6091
40.860,88.2159
40.870,87.3291
40.880,96.4058
40.890,87.8390
40.900,95.5061
40.910,92.7515
40.920,89.3108
40.930,94.9627
40.940,88.6445
40.950,93.9782
40.960,91.7890
40.970,92.3366
40.980,90.7908
40.990,94.6619
41.000,92.0178
41.010,83.5234
41.020,86.1585
41.030,85.2442
41.040,85.8371
41.050,85.6267
41.060,88.8150
41.070,86.0095
41.080,86.8065
41.090,94.0885
41.100,87.8172
41.110,85.7834
41.120,94.6450
41.130,88.8025
41.140,83.8095
41.150,86.3023
41.160,88.3634
41.170,92.9137
41.180,89.7273
41.190,94.3506
41.200,87.3175
41.210,91.9710
41.220,90.2008
41.230,92.3920
41.240,96.2307
41.250,85.3642
41.260,96.1624
41.270,87.5813
41.280,95.6177
41.290,86.4782
41.300,86.8948
41.310,87.7926
41.320,88.9449
41.330,92.9472
41.340,91.2927
41.350,89.9187
41.360,93.2253
41.370,91.6886
41.380,89.3650
41.390,91.3149
41.400,92.1033
41.410,96.4883
41.420,89.9657
41.430,94.1990
41.440,91.7194
41.450,95.5655
41.460,93.1722
41.470,99.1626
41.480,94.8975
41.490,99.9961
41.500,98.2047
41.510,94.8844
41.520,92.4193
41.530,92.1165
41.540,91.4128
41.550,94.7894
41.560,91.1041
41.570,94.9745
41.580,100.3436
41.590,93.1245
41.600,91.4624
41.610,95.1705
41.620,93.6924
41.630,97.2120
41.640,93.0803
41.650,100.9750
41.660,93.3484
41.670,100.0682
41.680,97.7259
41.690,94.6268
41.700,97.9434
41.710,99.6771
41.720,100.2372
41.730,103.4177
41.740,97.6691
41.750,99.3145
41.760,96.1152
41.770,93.1240
41.780,95.5051
41.790,92.8869
41.800,95.2961
41.810,100.2724
41.820,99.5588
41.830,94.5267
41.840,96.4280
41.850,99.6628
41.860,100.4128
41.870,101.3456
41.880,102.7983
41.890,98.6095
41.900,97.5365
41.910,102.7002
41.920,101.2149
41.930,98.0771
41.940,97.4545
41.950,92.1386
41.960,100.2419
41.970,93.6688
41.980,92.3655
41.990,91.7261
42.000,102.1681
42.010,102.1357
42.020,101.2790
42.030,95.6980
42.040,92.8656
42.050,95.6727
42.060,96.5357
42.070,95.3196
42.080,99.8156
42.090,90.8536
42.100,98.6080
42.110,89.6317
42.120,89.3489
42.130,90.3950
42.140,91.3390
42.150,99.5475
42.160,88.0692
42.170,91.0527
42.180,96.1330
42.190,91.7860
42.200,95.0271
42.210,92.8432
42.220,92.7330
42.230,92.6222
42.240,91.4530
42.250,97.1271
42.260,88.3873
42.270,93.4994
42.280,97.2056
42.290,91.4426
42.300,94.7137
42.310,85.7139
42.320,86.2929
42.330,90.9235
42.340,93.5924
42.350,88.1029
42.360,85.2638
42.370,92.9980
42.380,89.0281
42.390,84.7203
42.400,90.4601
42.410,91.1951
42.420,85.5840
42.430,89.7200
42.440,95.1474
42.450,89.9441
42.460,93.8155
42.470,89.8980
42.480,93.4206
42.490,84.7079
42.500,86.5085
42.510,86.6767
42.520,90.9319
42.530,91.9728
42.540,88.7420
42.550,91.1338
42.560,95.3789
42.570,92.9584
42.580,94.5649
42.590,84.8009
42.600,95.4711
42.610,93.0951
42.620,89.4518
42.630,93.4419
42.640,90.2163
42.650,95.0946
42.660,92.7409
42.670,89.4650
42.680,95.8824
42.690,95.5621
42.700,86.2987
42.710,89.2507
42.720,97.2356
42.730,88.6061
42.740,97.5101
42.750,87.8778
42.760,91.8502
42.770,87.7595
42.780,95.6517
42.790,92.0733
42.800,90.0189
42.810,98.8001
42.820,91.7849
42.830,91.1296
42.840,90.3451
42.850,99.3047
42.860,90.4909
42.870,91.9328
42.880,92.0014
42.890,92.9377
42.900,90.2044
42.910,89.6197
42.920,100.2941
42.930,90.9075
42.940,90.7350
42.950,95.0938
42.960,92.3532
42.970,101.0389
42.980,102.0804
42.990,97.0083
43.000,102.7701
43.010,91.4718
43.020,92.8791
43.030,97.5569
43.040,96.8847
43.050,96.2754
43.060,97.9612
43.070,94.9935
43.080,93.6431
43.090,97.3703
43.100,96.9096
43.110,96.6684
43.120,100.6791
43.130,93.3929
43.140,97.5572
43.150,103.5101
43.160,97.1468
43.170,99.3588
43.180,102.6613
43.190,97.8807
43.200,95.7156
43.210,95.1687
43.220,94.6812
43.230,102.5896
43.240,97.7009
43.250,104.5155
43.260,96.3081
43.270,98.2746
43.280,95.8468
43.290,101.7665
43.300,95.7937
43.310,102.4474
43.320,99.2069
43.330,95.3835
43.340,92.6896
43.350,100.2280
43.360,96.8103
43.370,102.3485
43.380,95.0672
43.390,92.3873
43.400,97.5453
43.410,102.8286
43.420,95.2532
43.430,97.5425
43.440,93.9166
43.450,98.3378
43.460,99.5543
43.470,97.9528
43.480,100.4461
43.490,94.7165
43.500,92.4171
43.510,90.2185
43.520,97.2043
43.530,96.7646
43.540,92.5388
43.550,96.8397
43.560,98.6821
43.570,89.4687
43.580,93.2910
43.590,94.8618
43.600,99.4073
43.610,98.5810
43.620,91.3135
43.630,97.9894
43.640,88.5558
43.650,89.1797
43.660,89.2266
43.670,88.4468
43.680,93.1307
43.690,89.7527
43.700,93.6922
43.710,97.3468
43.720,90.2581
43.730,91.4890
43.740,90.3851
43.750,95.1968
43.760,92.1354
43.770,90.0448
43.780,88.8399
43.790,85.0137
43.800,85.2612
43.810,91.5708
43.820,92.2887
43.830,94.5681
43.840,89.3796
43.850,85.4075
43.860,95.0080
43.870,94.1404
43.880,84.2582
43.890,84.7224
43.900,90.2504
43.910,92.2606
43.920,94.7346
43.930,86.3615
43.940,87.1180
43.950,94.2910
43.960,91.0794
43.970,89.9522
43.980,90.4270
43.990,84.3114
44.000,92.5538
44.010,89.9150
44.020,87.7161
44.030,87.7896
44.040,94.2592
44.050,91.9816
44.060,90.8103
44.070,92.6938
44.080,91.3184
44.090,95.5177
44.100,86.6283
44.110,87.6126
44.120,88.2055
44.130,88.9900
44.140,92.7932
44.150,96.9441
44.160,86.3926
44.170,96.4145
44.180,93.3364
44.190,94.9603
44.200,98.3476
44.210,96.2372
44.220,92.9441
44.230,95.7377
44.240,92.5108
44.250,93.4501
44.260,97.9988
44.270,95.9933
44.280,99.7927
44.290,96.4584
44.300,89.8276
44.310,94.9585
44.320,93.7422
44.330,90.5318
44.340,100.7689
44.350,97.9255
44.360,91.5257
44.370,94.7123
44.380,99.5901
44.390,100.2458
44.400,100.3024
44.410,93.4662
44.420,99.9462
44.430,94.5803
44.440,93.2953
44.450,94.9345
44.460,101.4336
44.470,103.4551
44.480,97.2139
44.490,101.7699
44.500,98.5091
44.510,104.1730
44.520,102.1614
44.530,100.9869
44.540,99.5431
44.550,98.0325
44.560,101.1751
44.570,101.1873
44.580,94.9092
44.590,99.3778
44.600,95.6551
44.610,103.0637
44.620,95.8764
44.630,102.8186
44.640,100.7575
44.650,104.3591
44.660,94.7150
44.670,97.9334
44.680,100.7747
44.690,95.6989
44.700,103.0339
44.710,96.6405
44.720,102.3569
44.730,93.7543
44.740,101.4693
44.750,94.6479
44.760,93.4452
44.770,104.1133
44.780,101.4776
44.790,103.9367
44.800,104.0578
44.810,99.1275
44.820,96.5977
44.830,92.3643
44.840,93.9815
44.850,94.7326
44.860,92.2734
44.870,92.4448
44.880,102.7811
44.890,101.6283
44.900,93.4498
44.910,91.6910
44.920,93.2877
44.930,98.4974
44.940,92.2595
44.950,98.3805
44.960,95.2863
44.970,90.4634
44.980,99.3376
44.990,96.8650
45.000,93.0058
45.010,95.9484
45.020,92.4152
45.030,95.3862
45.040,97.2746
45.050,104.9561
45.060,106.0489
45.070,106.0366
45.080,101.4736
45.090,111.9505
45.100,104.5807
45.110,111.6431
45.120,116.7390
45.130,114.9967
45.140,112.7670
45.150,110.2788
45.160,117.4944
45.170,118.0128
45.180,115.7398
45.190,120.8844
45.200,117.7256
45.210,122.5150
45.220,127.0006
45.230,128.5165
45.240,132.6651
45.250,127.0599
45.260,137.3185
45.270,134.3150
45.280,136.0319
45.290,138.1727
45.300,137.6888
45.310,138.1971
45.320,145.3301
45.330,144.9326
45.340,141.6941
45.350,138.8897
45.360,147.1281
45.370,145.1081
45.380,154.1860
45.390,154.5601
45.400,152.2730
45.410,157.6530
45.420,153.5105
45.430,155.9563
45.440,155.5073
45.450,156.9413
45.460,156.1854
45.470,156.3379
45.480,166.9158
45.490,165.4364
45.500,168.2014
45.510,169.3539
45.520,167.0604
45.530,167.2978
45.540,166.8383
45.550,176.0835
45.560,177.5728
45.570,181.3554
45.580,172.2272
45.590,180.8524
45.600,175.4521
45.610,180.5047
45.620,185.5809
45.630,183.5072
45.640,183.9946
45.650,189.6757
45.660,185.1887
45.670,185.0214
45.680,187.6583
45.690,192.4967
45.700,197.4107
45.710,201.4061
45.720,193.4907
45.730,196.4401
45.740,199.6128
45.750,198.3951
45.760,208.6592
45.770,208.1172
45.780,201.8521
45.790,202.5275
45.800,205.2138
45.810,214.7442
45.820,213.1124
45.830,214.7413
45.840,218.4198
45.850,212.2638
45.860,216.6415
45.870,213.9300
45.880,221.0619
45.890,221.6972
45.900,222.2369
45.910,221.5123
45.920,223.2613
45.930,230.5451
45.940,232.7537
45.950,232.7997
45.960,231.4985
45.970,234.3001
45.980,229.0966
45.990,237.1297
46.000,232.2678
46.010,233.6678
46.020,241.2798
46.030,235.4419
46.040,232.3782
46.050,232.6531
46.060,235.6351
46.070,239.6835
46.080,237.9761
46.090,239.7431
46.100,240.0874
46.110,237.5080
46.120,243.1979
46.130,235.4248
46.140,238.2319
46.150,234.9970
46.160,242.6350
46.170,234.4144
46.180,238.4500
46.190,238.6390
46.200,238.7787
46.210,240.7770
46.220,240.6956
46.230,238.6919
46.240,240.3558
46.250,238.8973
46.260,236.7683
46.270,238.5115
46.280,237.2854
46.290,239.2199
46.300,234.5385
46.310,241.6951
46.320,236.1706
46.330,232.6463
46.340,241.7561
46.350,242.2994
46.360,233.9460
46.370,232.4646
46.380,235.0690
46.390,237.2006
46.400,235.4039
46.410,234.4393
46.420,242.1628
46.430,231.9008
46.440,239.2558
46.450,235.7013
46.460,235.3068
46.470,233.6295
46.480,234.5446
46.490,238.1746
46.500,243.2894
46.510,242.1498
46.520,238.4496
46.530,239.0944
46.540,239.4399
46.550,239.7220
46.560,233.5389
46.570,233.0162
46.580,233.9334
46.590,237.8796
46.600,236.8467
46.610,238.3059
46.620,234.9836
46.630,236.0010
46.640,237.3771
46.650,240.8531
46.660,233.1491
46.670,239.9231
46.680,232.2692
46.690,232.2234
46.700,240.2997
46.710,239.9559
46.720,239.4418
46.730,239.1360
46.740,235.3715
46.750,233.7482
46.760,237.7398
46.770,235.4179
46.780,238.7481
46.790,239.4149
46.800,233.8336
46.810,241.4853
46.820,239.4611
46.830,234.1590
46.840,243.4626
46.850,242.3509
46.860,234.5286
46.870,240.8066
46.880,243.4257
46.890,241.8914
46.900,233.3741
46.910,233.8595
46.920,237.5390
46.930,241.8437
46.940,235.8789
46.950,238.7989
46.960,239.5619
46.970,239.0598
46.980,232.9127
46.990,232.2503
47.000,96.1931
47.010,96.3205
47.020,92.3744
47.030,96.3626
47.040,88.2604
47.050,98.1011
47.060,90.1428
47.070,94.9510
47.080,89.8646
47.090,91.3871
47.100,98.5611
47.110,99.2457
47.120,91.9212
47.130,96.7265
47.140,91.4124
47.150,92.1520
47.160,90.4936
47.170,90.4310
47.180,97.1521
47.190,91.3491
47.200,91.3530
47.210,99.7805
47.220,92.1938
47.230,96.8234
47.240,96.2378
47.250,100.5967
47.260,93.5332
47.270,92.5212
47.280,94.6885
47.290,94.7382
47.300,102.5492
47.310,94.4863
47.320,104.0275
47.330,94.0923
47.340,101.6806
47.350,99.4312
47.360,101.2385
47.370,101.1215
47.380,94.1549
47.390,104.1088
47.400,98.7172
47.410,103.8374
47.420,95.6580
47.430,94.2855
47.440,96.7054
47.450,100.4040
47.460,97.8887
47.470,94.1023
47.480,102.7598
47.490,94.8474
47.500,100.7970
47.510,102.3986
47.520,98.3775
47.530,103.5415
47.540,103.1006
47.550,102.0426
47.560,98.7822
47.570,101.7801
47.580,93.9637
47.590,102.1683
47.600,95.6773
47.610,105.0116
47.620,103.6475
47.630,94.9200
47.640,101.7676
47.650,93.8881
47.660,98.0609
47.670,97.8784
47.680,96.5053
47.690,97.1657
47.700,96.9591
47.710,101.8252
47.720,94.2111
47.730,92.3063
47.740,98.4662
47.750,93.1675
47.760,94.7556
47.770,96.3524
47.780,96.4944
47.790,94.9995
47.800,97.1506
47.810,91.1257
47.820,92.7822
47.830,95.7971
47.840,95.5547
47.850,92.0929
47.860,96.8691
47.870,99.7045
47.880,97.1246
47.890,90.1471
47.900,98.0260
47.910,94.3212
47.920,94.1585
47.930,90.1377
47.940,93.8366
47.950,91.4173
47.960,88.2691
47.970,92.7665
47.980,94.5988
47.990,94.5500
48.000,88.7874
48.010,95.4394
48.020,88.8505
48.030,96.0691
48.040,94.9432
48.050,88.3047
48.060,87.3009
48.070,86.8953
48.080,95.2660
48.090,88.1615
48.100,87.8059
48.110,89.0138
48.120,96.7574
48.130,96.0151
48.140,95.3060
48.150,92.4071
48.160,95.4403
48.170,89.1345
48.180,87.4670
48.190,89.5366
48.200,94.7322
48.210,90.7171
48.220,95.0682
48.230,89.2079
48.240,89.7647
48.250,87.2744
48.260,85.8480
48.270,88.6068
48.280,96.6560
48.290,94.6448
48.300,95.4613
48.310,96.5271
48.320,90.6937
48.330,92.4675
48.340,89.5354
48.350,96.5113
48.360,90.9458
48.370,89.3339
48.380,96.1886
48.390,90.7794
48.400,95.7239
48.410,96.1109
48.420,87.8065
48.430,90.7776
48.440,88.3572
48.450,90.8101
48.460,90.1963
48.470,97.6848
48.480,88.9605
48.490,88.4999
48.500,94.1205
48.510,91.5628
48.520,88.7194
48.530,93.7234
48.540,91.2913
48.550,100.9255
48.560,89.6118
48.570,93.6801
48.580,91.6441
48.590,98.9949
48.600,94.1425
48.610,95.8987
48.620,102.2357
48.630,91.8988
48.640,98.4732
48.650,100.5636
48.660,102.0221
48.670,99.7054
48.680,97.0335
48.690,92.7348
48.700,96.3175
48.710,92.8286
48.720,99.5605
48.730,99.5412
48.740,95.8565
48.750,98.4046
48.760,93.8670
48.770,102.2797
48.780,101.2102
48.790,102.8024
48.800,95.8225
48.810,104.2204
48.820,97.0119
48.830,98.8444
48.840,94.6504
48.850,102.3619
48.860,104.7938
48.870,100.5108
48.880,105.7644
48.890,96.8036
48.900,100.5657
48.910,105.2043
48.920,101.2173
48.930,104.2032
48.940,104.8556
48.950,97.4329
48.960,95.0551
48.970,105.9830
48.980,96.2553
48.990,97.0823
49.000,101.8060
49.010,99.7319
49.020,103.0095
49.030,102.0564
49.040,98.6095
49.050,96.2574
49.060,98.1197
49.070,97.5712
49.080,98.3418
49.090,98.2060
49.100,96.7633
49.110,103.6726
49.120,99.3261
49.130,100.3710
49.140,100.5226
49.150,95.8107
49.160,100.1673
49.170,100.6738
49.180,102.6277
49.190,97.4781
49.200,99.0099
49.210,93.3757
49.220,91.9798
49.230,101.9644
49.240,99.9337
49.250,91.6552
49.260,90.7623
49.270,98.0633
49.280,91.1073
49.290,97.4631
49.300,90.0254
49.310,94.2977
49.320,94.1470
49.330,90.3761
49.340,94.7218
49.350,95.7584
49.360,94.0000
49.370,94.1331
49.380,94.1155
49.390,87.8534
49.400,98.9809
49.410,93.6126
49.420,94.3057
49.430,88.4973
49.440,90.2394
49.450,90.7326
49.460,89.6001
49.470,90.1498
49.480,90.5215
49.490,94.2981
49.500,96.5841
49.510,86.3500
49.520,94.4689
49.530,93.8569
49.540,96.9134
49.550,95.0586
49.560,93.8337
49.570,94.8919
49.580,90.4353
49.590,94.6657
49.600,88.9682
49.610,96.0569
49.620,91.8225
49.630,86.7209
49.640,92.3660
49.650,86.4255
49.660,93.4220
49.670,90.2967
49.680,94.9848
49.690,95.0575
49.700,89.6404
49.710,93.9761
49.720,91.5978
49.730,85.7985
49.740,96.2981
49.750,87.8000
49.760,92.2524
49.770,94.4349
49.780,92.4940
49.790,89.7591
49.800,90.5683
49.810,90.6061
49.820,97.8013
49.830,89.1848
49.840,89.7344
49.850,92.8166
49.860,91.5759
49.870,97.6968
49.880,98.1008
49.890,95.5327
49.900,99.2001
49.910,95.4373
49.920,89.9215
49.930,94.6546
49.940,98.0739
49.950,95.4620
49.960,99.5396
49.970,92.4780
49.980,97.5191
49.990,95.0518
50.000,90.7078
50.010,97.2076
50.020,93.8127
50.030,99.1664
50.040,101.8802
50.050,92.7241
50.060,98.5945
50.070,91.7010
50.080,98.7421
50.090,102.4733
50.100,97.0433
50.110,97.5955
50.120,101.4548
50.130,94.2784
50.140,100.7725
50.150,95.8346
50.160,98.4482
50.170,96.7179
50.180,100.7131
50.190,97.0422
50.200,103.1709
50.210,101.6370
50.220,103.5061
50.230,103.0825
50.240,94.4875
50.250,101.9355
50.260,98.1130
50.270,99.6347
50.280,105.4778
50.290,95.9238
50.300,101.6827
50.310,103.4621
50.320,99.4945
50.330,96.9162
50.340,96.1595
50.350,97.9394
50.360,97.7864
50.370,103.4987
50.380,98.1112
50.390,94.9973
50.400,101.2483
50.410,102.5440
50.420,105.3756
50.430,97.2858
50.440,99.4439
50.450,98.7429
50.460,101.7775
50.470,99.4340
50.480,105.5756
50.490,94.1269
50.500,101.4689
50.510,104.6831
50.520,99.9219
50.530,95.3269
50.540,104.4392
50.550,94.2916
50.560,93.9498
50.570,100.6931
50.580,103.6202
50.590,95.4761
50.600,95.0885
50.610,98.9279
50.620,99.4013
50.630,99.0272
50.640,92.1796
50.650,103.1240
50.660,96.3205
50.670,102.1623
50.680,96.5414
50.690,100.1030
50.700,98.0164
50.710,99.4331
50.720,93.8468
50.730,93.3129
50.740,99.2282
50.750,100.1042
50.760,94.1150
50.770,90.3768
50.780,97.4061
50.790,99.2374
50.800,93.5593
50.810,91.1202
50.820,98.5538
50.830,91.7488
50.840,88.4648
50.850,97.9436
50.860,95.2096
50.870,91.3935
50.880,98.7486
50.890,89.7767
50.900,96.1090
50.910,87.8834
50.920,93.2068
50.930,92.4706
50.940,95.7781
50.950,88.9712
50.960,87.7024
50.970,94.1907
50.980,87.7228
50.990,90.4246
51.000,92.1606
51.010,92.7551
51.020,86.5594
51.030,88.8389
51.040,86.4892
51.050,92.1536
51.060,88.5987
51.070,91.6845
51.080,88.2506
51.090,94.8067
51.100,91.3228
51.110,95.3778
51.120,94.4412
51.130,97.4168
51.140,86.4948
51.150,89.9824
51.160,91.4678
51.170,96.4081
51.180,94.1808
51.190,95.9340
51.200,90.5287
51.210,94.4610
51.220,95.6712
51.230,93.2030
51.240,96.9708
51.250,87.5086
51.260,93.4615
51.270,93.6528
51.280,92.8257
51.290,94.5258
51.300,94.3902
51.310,89.3467
51.320,95.9504
51.330,92.7620
51.340,93.0370
51.350,94.2356
51.360,96.6913
51.370,99.4224
51.380,96.4660
51.390,92.5736
51.400,94.3661
51.410,93.2329
51.420,101.7133
51.430,90.4539
51.440,90.8283
51.450,101.1613
51.460,92.8760
51.470,93.6328
51.480,93.3941
51.490,96.8806
51.500,92.0497
51.510,95.0296
51.520,95.3126
51.530,101.0789
51.540,96.9533
51.550,103.3042
51.560,96.2020
51.570,99.3143
51.580,93.9315
51.590,93.5344
51.600,94.9811
51.610,102.1641
51.620,96.0941
51.630,104.1630
51.640,96.3687
51.650,98.1439
51.660,97.9751
51.670,101.8102
51.680,102.1188
51.690,95.1942
51.700,102.0959
51.710,104.4587
51.720,104.0131
51.730,98.7641
51.740,96.9400
51.750,100.0761
51.760,96.1801
51.770,100.4081
51.780,102.2276
51.790,100.6326
51.800,97.9178
51.810,97.9663
51.820,105.6928
51.830,96.1985
51.840,101.2129
51.850,103.7981
51.860,102.6840
51.870,99.9788
51.880,105.8518
51.890,97.0145
51.900,94.9184
51.910,98.7586
51.920,102.0357
51.930,94.3162
51.940,94.6511
51.950,95.4688
51.960,103.0475
51.970,96.6596
51.980,103.5847
51.990,98.1627
52.000,97.5864
52.010,103.2713
52.020,100.8869
52.030,102.3647
52.040,97.6101
52.050,94.2619
52.060,99.2424
52.070,100.9824
52.080,97.3519
52.090,99.1320
52.100,99.4618
52.110,94.4966
52.120,92.9879
52.130,98.0363
52.140,93.1263
52.150,92.6139
52.160,99.9065
52.170,90.7994
52.180,100.6993
52.190,89.8697
52.200,94.0075
52.210,100.1046
52.220,94.8248
52.230,90.9274
52.240,100.2170
52.250,95.9409
52.260,93.6861
52.270,89.9766
52.280,97.5424
52.290,90.8996
52.300,96.4117
52.310,88.2089
52.320,93.4480
52.330,87.6978
52.340,97.6837
52.350,95.0065
52.360,90.7014
52.370,87.0992
52.380,89.6153
52.390,87.7226
52.400,97.2399
52.410,87.7738
52.420,94.2012
52.430,97.7874
52.440,87.3479
52.450,91.2059
52.460,97.0682
52.470,87.2042
52.480,87.9854
52.490,86.4899
52.500,87.4267
52.510,86.3940
52.520,90.4317
52.530,92.1273
52.540,89.6947
52.550,89.1628
52.560,93.3130
52.570,90.7437
52.580,88.4859
52.590,93.0988
52.600,92.3597
52.610,91.0188
52.620,87.7802
52.630,90.4991
52.640,93.8722
52.650,96.6032
52.660,94.7603
52.670,93.1925
52.680,99.0056
52.690,90.7778
52.700,93.0491
52.710,87.9796
52.720,98.6420
52.730,93.0202
52.740,91.5902
52.750,96.4819
52.760,90.9586
52.770,95.7358
52.780,92.5250
52.790,91.5435
52.800,100.3289
52.810,95.8392
52.820,93.4010
52.830,94.2478
52.840,90.3499
52.850,99.8612
52.860,98.1828
52.870,99.1656
52.880,95.5861
52.890,101.4632
52.900,96.8457
52.910,102.4929
52.920,97.7530
52.930,97.2729
52.940,95.3901
52.950,93.7646
52.960,97.7680
52.970,95.8691
52.980,104.2576
52.990,96.2057
53.000,102.6847
53.010,102.1634
53.020,99.7805
53.030,104.2672
53.040,97.4654
53.050,98.2315
53.060,95.0794
53.070,100.6147
53.080,102.9382
53.090,95.9326
53.100,99.8425
53.110,102.0865
53.120,95.2701
53.130,96.3506
53.140,104.2454
53.150,102.6429
53.160,100.4523
53.170,105.2753
53.180,97.5327
53.190,102.6397
53.200,96.3684
53.210,101.8035
53.220,99.3732
53.230,105.7607
53.240,97.1192
53.250,99.3289
53.260,100.0151
53.270,100.3011
53.280,97.9955
53.290,102.2587
53.300,98.1011
53.310,100.4941
53.320,97.3827
53.330,99.2043
53.340,106.0611
53.350,100.3356
53.360,96.9737
53.370,95.0352
53.380,102.5924
53.390,99.1118
53.400,104.1087
53.410,95.2795
53.420,103.2795
53.430,95.9203
53.440,94.2994
53.450,96.4567
53.460,98.9128
53.470,96.2117
53.480,98.6733
53.490,102.1656
53.500,96.5313
53.510,99.2348
53.520,96.3950
53.530,101.4597
53.540,98.6385
53.550,93.7012
53.560,93.3486
53.570,102.5061
53.580,101.0699
53.590,96.9011
53.600,99.2429
53.610,93.0590
53.620,100.7379
53.630,89.7133
53.640,99.1638
53.650,90.9162
53.660,91.2466
53.670,100.2041
53.680,96.5137
53.690,98.6733
53.700,92.6172
53.710,88.3202
53.720,97.4146
53.730,94.3889
53.740,95.9930
53.750,98.4628
53.760,94.8046
53.770,98.9660
53.780,92.3547
53.790,95.6057
53.800,92.7182
53.810,92.6106
53.820,97.4686
53.830,95.0766
53.840,92.5428
53.850,94.7878
53.860,91.0258
53.870,86.5203
53.880,91.9288
53.890,94.4548
53.900,90.7448
53.910,93.1692
53.920,89.5422
53.930,86.6758
53.940,96.1829
53.950,95.0138
53.960,93.6053
53.970,97.7099
53.980,90.4654
53.990,89.2406
54.000,90.6758
54.010,94.8140
54.020,95.8920
54.030,88.5120
54.040,90.9430
54.050,97.8933
54.060,98.6952
54.070,87.4149
54.080,95.5958
54.090,90.6910
54.100,89.2932
54.110,88.8104
54.120,89.3218
54.130,90.8097
54.140,97.9192
54.150,98.0167
54.160,98.3667
54.170,89.4358
54.180,97.7888
54.190,91.5968
54.200,94.1833
54.210,92.3876
54.220,92.3552
54.230,98.5672
54.240,100.0522
54.250,91.3355
54.260,99.5588
54.270,94.3462
54.280,101.9655
54.290,95.0462
54.300,95.5230
54.310,94.2663
54.320,94.4400
54.330,93.8153
54.340,95.7458
54.350,95.7304
54.360,95.4391
54.370,98.8378
54.380,96.5048
54.390,95.0874
54.400,104.0142
54.410,99.9742
54.420,102.0918
54.430,94.0258
54.440,104.8677
54.450,95.0632
54.460,99.4167
54.470,100.5610
54.480,101.3756
54.490,104.7889
54.500,99.4481
54.510,105.4679
54.520,101.8372
54.530,99.8983
54.540,104.9466
54.550,106.0112
54.560,96.4519
54.570,100.5030
54.580,98.7119
54.590,97.4135
54.600,100.9746
54.610,98.4429
54.620,99.7098
54.630,100.2760
54.640,106.9288
54.650,98.3311
54.660,98.6225
54.670,98.0607
54.680,99.7424
54.690,97.8556
54.700,99.2828
54.710,96.3564
54.720,100.4309
54.730,106.3451
54.740,98.2506
54.750,102.8145
54.760,105.7627
54.770,98.5121
54.780,96.3653
54.790,96.2710
54.800,98.2654
54.810,100.7019
54.820,100.8291
54.830,95.4558
54.840,104.6396
54.850,104.8092
54.860,104.3051
54.870,99.3714
54.880,102.0740
54.890,101.2657
54.900,103.6288
54.910,103.4624
54.920,92.9020
54.930,103.0573
54.940,102.3828
54.950,97.8524
54.960,93.7550
54.970,102.1078
54.980,96.8348
54.990,97.1775
55.000,99.5234
55.010,96.8152
55.020,101.0705
55.030,91.8351
55.040,94.6770
55.050,94.5877
55.060,91.8786
55.070,98.2267
55.080,100.3549
55.090,94.8787
55.100,100.7980
55.110,96.5637
55.120,97.9382
55.130,96.0755
55.140,92.6864
55.150,94.3831
55.160,95.3343
55.170,92.2862
55.180,93.1801
55.190,97.3441
55.200,89.6919
55.210,91.5461
55.220,92.5631
55.230,96.3656
55.240,92.2113
55.250,87.4095
55.260,95.3208
55.270,88.3307
55.280,92.5863
55.290,91.7019
55.300,87.9473
55.310,87.7477
55.320,90.2447
55.330,91.7067
55.340,94.0211
55.350,87.5905
55.360,89.3918
55.370,89.1591
55.380,88.3690
55.390,91.4952
55.400,89.2962
55.410,91.9643
55.420,93.1083
55.430,95.5232
55.440,96.8553
55.450,94.9269
55.460,90.8244
55.470,89.9302
55.480,88.9689
55.490,92.8236
55.500,87.8922
55.510,96.7260
55.520,91.9798
55.530,97.1881
55.540,88.1424
55.550,96.4073
55.560,93.3967
55.570,97.7599
55.580,91.6265
55.590,95.9785
55.600,96.8547
55.610,93.6654
55.620,99.0263
55.630,97.1576
55.640,100.6246
55.650,98.1888
55.660,97.6555
55.670,90.7613
55.680,100.6236
55.690,92.4075
55.700,102.4818
55.710,102.5032
55.720,94.8884
55.730,96.6634
55.740,99.7782
55.750,99.2360
55.760,97.4656
55.770,103.8764
55.780,99.1660
55.790,96.0438
55.800,93.1502
55.810,99.9164
55.820,98.7705
55.830,95.4832
55.840,103.6712
55.850,99.3355
55.860,98.3564
55.870,97.2439
55.880,105.6304
55.890,96.9700
55.900,95.0823
55.910,101.8885
55.920,97.0321
55.930,97.5353
55.940,96.2608
55.950,95.6611
55.960,101.7788
55.970,99.0369
55.980,104.9197
55.990,95.9229
56.000,102.8990
56.010,101.6838
56.020,98.3323
56.030,96.5862
56.040,100.3612
56.050,106.5296
56.060,100.6579
56.070,107.0598
56.080,98.7452
56.090,96.7903
56.100,98.0884
56.110,103.5582
56.120,96.1809
56.130,98.4955
56.140,107.0775
56.150,96.1230
56.160,107.1179
56.170,105.1036
56.180,104.7861
56.190,98.0916
56.200,102.4650
56.210,97.8577
56.220,102.6369
56.230,105.0732
56.240,105.5187
56.250,98.7432
56.260,95.5598
56.270,101.3043
56.280,95.3986
56.290,96.1208
56.300,98.3835
56.310,103.6258
56.320,98.9237
56.330,103.8845
56.340,101.2331
56.350,93.3979
56.360,99.5299
56.370,97.7016
56.380,98.1376
56.390,93.9107
56.400,96.6660
56.410,102.6334
56.420,92.6113
56.430,92.7026
56.440,98.2184
56.450,102.6210
56.460,91.3496
56.470,96.3012
56.480,101.0230
56.490,98.8640
56.500,98.1426
56.510,94.4220
56.520,97.6898
56.530,93.3873
56.540,92.0468
56.550,98.6979
56.560,92.7668
56.570,93.4681
56.580,89.4409
56.590,97.9857
56.600,98.1727
56.610,89.0483
56.620,99.4932
56.630,89.9371
56.640,92.8796
56.650,98.3699
56.660,91.4757
56.670,89.0786
56.680,97.7360
56.690,89.2194
56.700,89.8592
56.710,87.4217
56.720,95.6196
56.730,96.7560
56.740,90.1397
56.750,97.2335
56.760,96.8266
56.770,88.1205
56.780,87.1514
56.790,95.2814
56.800,92.7728
56.810,91.9794
56.820,87.3525
56.830,97.3436
56.840,89.8665
56.850,97.3132
56.860,96.9657
56.870,92.7296
56.880,88.8241
56.890,96.4953
56.900,93.0513
56.910,89.8695
56.920,96.5385
56.930,97.2925
56.940,93.9682
56.950,90.9071
56.960,94.1168
56.970,93.2991
56.980,90.5264
56.990,93.4932
57.000,98.6018
57.010,97.1779
57.020,99.1376
57.030,100.8149
57.040,100.5137
57.050,95.2394
57.060,96.1326
57.070,100.2257
57.080,91.0007
57.090,98.6202
57.100,93.5531
57.110,96.6967
57.120,102.6711
57.130,100.1623
57.140,93.0574
57.150,102.8917
57.160,97.4021
57.170,94.3913
57.180,98.4264
57.190,97.4728
57.200,104.1899
57.210,98.5796
57.220,94.9448
57.230,103.3806
57.240,96.3731
57.250,97.6242
57.260,101.9476
57.270,99.2722
57.280,103.1725
57.290,96.3010
57.300,105.4525
57.310,100.1882
57.320,100.0960
57.330,102.0784
57.340,106.2401
57.350,101.5064
57.360,95.7885
57.370,98.5706
57.380,103.5357
57.390,103.7226
57.400,106.4351
57.410,100.6127
57.420,97.6487
57.430,107.4264
57.440,101.7309
57.450,101.3024
57.460,97.0568
57.470,104.3667
57.480,98.0483
57.490,100.6731
57.500,103.3676
57.510,101.8928
57.520,98.5725
57.530,97.9241
57.540,97.6162
57.550,96.5679
57.560,103.8489
57.570,106.5612
57.580,100.5316
57.590,96.8736
57.600,100.8817
57.610,97.6736
57.620,106.6853
57.630,107.3349
57.640,96.8706
57.650,104.1334
57.660,101.5357
57.670,102.0390
57.680,99.5151
57.690,97.5279
57.700,98.8627
57.710,105.0352
57.720,100.3912
57.730,100.7122
57.740,94.1956
57.750,98.9195
57.760,101.9445
57.770,94.0133
57.780,104.1374
57.790,96.5438
57.800,98.8933
57.810,102.8110
57.820,97.3248
57.830,98.9852
57.840,101.1882
57.850,97.8895
57.860,98.7130
57.870,91.8485
57.880,93.7007
57.890,97.5395
57.900,95.0745
57.910,99.7561
57.920,95.0474
57.930,101.4843
57.940,99.2074
57.950,96.5126
57.960,92.8915
57.970,89.9505
57.980,97.8056
57.990,97.0924
58.000,98.5317
58.010,94.4991
58.020,90.7713
58.030,92.7471
58.040,93.5130
58.050,93.0117
58.060,89.2088
58.070,96.7458
58.080,97.4608
58.090,97.3537
58.100,92.7145
58.110,94.8093
58.120,92.5592
58.130,90.1488
58.140,92.9641
58.150,92.5027
58.160,89.0091
58.170,87.7351
58.180,95.4073
58.190,95.8667
58.200,92.4649
58.210,93.0800
58.220,90.8420
58.230,89.5492
58.240,95.4105
58.250,96.6558
58.260,97.1687
58.270,89.3666
58.280,90.8257
58.290,93.9741
58.300,92.0773
58.310,98.7443
58.320,98.9461
58.330,99.2886
58.340,94.9089
58.350,95.7081
58.360,93.1041
58.370,95.1847
58.380,98.3049
58.390,89.2414
58.400,95.3243
58.410,89.6103
58.420,99.4288
58.430,97.2136
58.440,95.7344
58.450,92.3995
58.460,100.0150
58.470,100.6168
58.480,100.7362
58.490,97.4908
58.500,96.5101
58.510,95.7470
58.520,99.7731
58.530,93.6673
58.540,102.2000
58.550,96.4246
58.560,95.3127
58.570,95.4417
58.580,102.5458
58.590,101.6189
58.600,96.6428
58.610,99.4716
58.620,102.0226
58.630,97.5019
58.640,93.8318
58.650,97.5331
58.660,98.1355
58.670,101.0290
58.680,94.3433
58.690,96.0856
58.700,98.3099
58.710,95.7982
58.720,97.2248
58.730,95.3591
58.740,106.1200
58.750,103.8834
58.760,100.8442
58.770,104.6801
58.780,96.8509
58.790,98.7976
58.800,97.5883
58.810,105.7609
58.820,99.9721
58.830,98.0699
58.840,103.5159
58.850,105.3066
58.860,104.5267
58.870,101.8510
58.880,98.7355
58.890,98.3654
58.900,100.4778
58.910,105.6626
58.920,96.8695
58.930,105.7770
58.940,101.9914
58.950,107.3481
58.960,106.9603
58.970,100.7460
58.980,102.1027
58.990,103.9299
59.000,107.4919
59.010,101.2473
59.020,97.7620
59.030,99.1842
59.040,101.0745
59.050,96.4020
59.060,104.2477
59.070,106.9259
59.080,96.8090
59.090,107.0928
59.100,105.1732
59.110,97.4814
59.120,95.6015
59.130,99.4292
59.140,97.6022
59.150,98.9316
59.160,101.6082
59.170,103.1162
59.180,101.2176
59.190,104.3312
59.200,94.5454
59.210,104.1701
59.220,96.4951
59.230,104.2314
59.240,99.3108
59.250,97.0561
59.260,93.6266
59.270,99.3185
59.280,103.7015
59.290,96.1259
59.300,101.4441
59.310,99.8469
59.320,100.2290
59.330,95.4005
59.340,95.0308
59.350,93.4511
59.360,100.9042
59.370,95.2939
59.380,91.4700
59.390,92.6791
59.400,92.6927
59.410,93.4869
59.420,96.1531
59.430,92.1292
59.440,96.4023
59.450,100.7228
59.460,94.8653
59.470,90.6029
59.480,95.0054
59.490,93.7644
59.500,90.5735
59.510,89.8252
59.520,99.4580
59.530,96.8333
59.540,97.4520
59.550,92.3307
59.560,93.1870
59.570,89.0625
59.580,98.5544
59.590,90.9939
59.600,93.9412
59.610,96.1103
59.620,95.8918
59.630,98.7983
59.640,88.3090
59.650,89.9594
59.660,90.1021
59.670,95.8380
59.680,94.4907
59.690,91.1433
59.700,97.0271
59.710,87.8100
59.720,94.6541
59.730,89.2443
59.740,91.4247
59.750,98.8863
59.760,92.1680
59.770,89.1455
59.780,98.9444
59.790,91.1547
59.800,98.4216
59.810,96.7716
59.820,90.9875
59.830,95.1509
59.840,89.8920
59.850,96.8487
59.860,92.6957
59.870,99.3463
59.880,99.2626
59.890,93.9925
59.900,101.8822
59.910,100.5219
59.920,100.8546
59.930,94.3941
59.940,96.7373
59.950,102.5170
59.960,94.9287
59.970,95.4898
59.980,102.7642
59.990,102.5925
