t_s,envelope_uV
0.000,56.5048
0.010,63.7715
0.020,57.9573
0.030,55.2813
0.040,65.9471
0.050,58.8344
0.060,59.8827
0.070,60.9200
0.080,63.4455
0.090,66.2390
0.100,56.9395
0.110,59.1987
0.120,58.5115
0.130,65.4640
0.140,58.9871
0.150,67.5844
0.160,61.7637
0.170,59.8798
0.180,63.8677
0.190,65.6143
0.200,65.7074
0.210,65.3009
0.220,68.0031
0.230,67.3867
0.240,62.4150
0.250,68.9374
0.260,59.6808
0.270,69.5659
0.280,65.5555
0.290,63.8933
0.300,62.1234
0.310,63.5946
0.320,64.2641
0.330,61.8756
0.340,68.2313
0.350,61.7526
0.360,69.4005
0.370,62.0111
0.380,66.6705
0.390,70.9670
0.400,60.6265
0.410,69.2036
0.420,61.8924
0.430,65.2130
0.440,66.1729
0.450,60.9726
0.460,66.8532
0.470,63.9299
0.480,67.8614
0.490,64.9610
0.500,64.0305
0.510,59.7163
0.520,63.9073
0.530,61.9797
0.540,64.2508
0.550,64.4821
0.560,66.9417
0.570,67.5016
0.580,63.6717
0.590,59.5723
0.600,61.3864
0.610,66.7626
0.620,67.4789
0.630,61.9839
0.640,60.0911
0.650,55.9047
0.660,57.8891
0.670,55.6387
0.680,62.4671
0.690,63.7906
0.700,60.0757
0.710,54.4826
0.720,54.9502
0.730,63.1176
0.740,62.2400
0.750,57.6064
0.760,60.4362
0.770,59.2166
0.780,60.7963
0.790,63.5080
0.800,57.3495
0.810,63.2164
0.820,63.5767
0.830,52.5083
0.840,59.9663
0.850,62.0176
0.860,56.8466
0.870,59.2545
0.880,54.5306
0.890,60.5437
0.900,61.5833
0.910,59.1673
0.920,53.2246
0.930,55.4865
0.940,51.1998
0.950,59.5750
0.960,52.1752
0.970,54.9936
0.980,54.7075
0.990,57.1318
1.000,58.5343
1.010,53.4055
1.020,55.4750
1.030,61.1563
1.040,53.3006
1.050,50.0409
1.060,61.1181
1.070,61.5969
1.080,57.7754
1.090,50.0339
1.100,49.7536
1.110,51.0816
1.120,55.0280
1.130,60.6745
1.140,49.8329
1.150,59.0958
1.160,56.2539
1.170,55.6966
1.180,56.3630
1.190,61.3421
1.200,57.1913
1.210,51.1832
1.220,56.4790
1.230,60.7343
1.240,61.6343
1.250,58.4509
1.260,60.4201
1.270,60.1208
1.280,61.3864
1.290,61.5277
1.300,60.3394
1.310,62.4531
1.320,55.3223
1.330,53.1295
1.340,59.7015
1.350,56.8034
1.360,64.3049
1.370,65.1157
1.380,55.2164
1.390,63.1265
1.400,60.4320
1.410,65.0413
1.420,63.2851
1.430,54.7570
1.440,56.5782
1.450,64.6605
1.460,56.5994
1.470,63.3602
1.480,63.7829
1.490,57.5927
1.500,65.3568
1.510,60.4123
1.520,58.0849
1.530,68.0653
1.540,57.0121
1.550,68.7916
1.560,67.0295
1.570,62.0215
1.580,65.2616
1.590,66.8837
1.600,68.8487
1.610,62.0530
1.620,60.0789
1.630,64.1394
1.640,64.9896
1.650,59.1713
1.660,63.9084
1.670,68.0424
1.680,68.5674
1.690,69.9276
1.700,66.3736
1.710,61.0954
1.720,63.5892
1.730,59.2608
1.740,70.2181
1.750,64.8769
1.760,62.4365
1.770,63.1487
1.780,62.0792
1.790,62.9907
1.800,61.0768
1.810,59.7460
1.820,70.7267
1.830,64.1455
1.840,64.0295
1.850,61.6623
1.860,61.7643
1.870,64.8965
1.880,67.6105
1.890,65.6019
1.900,61.3962
1.910,59.6855
1.920,60.2125
1.930,59.3062
1.940,61.5686
1.950,69.5833
1.960,59.5010
1.970,67.3597
1.980,60.7103
1.990,68.9981
2.000,61.7150
2.010,65.7601
2.020,62.5292
2.030,62.0572
2.040,62.9784
2.050,58.7410
2.060,58.2554
2.070,56.6717
2.080,60.6223
2.090,63.3005
2.100,62.4137
2.110,66.4754
2.120,65.6971
2.130,60.3584
2.140,62.4878
2.150,62.6574
2.160,63.7289
2.170,56.8839
2.180,56.7451
2.190,65.2083
2.200,59.4094
2.210,55.1546
2.220,64.7661
2.230,63.3124
2.240,56.3530
2.250,56.3927
2.260,53.9214
2.270,63.0935
2.280,52.2237
2.290,55.6639
2.300,60.4654
2.310,51.8652
2.320,54.1054
2.330,57.0393
2.340,62.4483
2.350,54.8690
2.360,57.8696
2.370,59.2674
2.380,59.6164
2.390,57.5487
2.400,57.1587
2.410,51.4314
2.420,50.3653
2.430,56.6067
2.440,58.0795
2.450,55.7085
2.460,52.6507
2.470,54.2346
2.480,58.1407
2.490,58.1080
2.500,56.9827
2.510,59.3258
2.520,51.0821
2.530,58.6782
2.540,55.6570
2.550,51.1032
2.560,54.2384
2.570,60.0918
2.580,52.0407
2.590,51.4482
2.600,59.4908
2.610,57.9515
2.620,60.7085
2.630,61.5873
2.640,58.6959
2.650,56.5422
2.660,57.1178
2.670,51.0643
2.680,60.6919
2.690,55.4974
2.700,57.4204
2.710,58.2882
2.720,61.6888
2.730,58.6690
2.740,58.5594
2.750,53.2296
2.760,60.8129
2.770,59.9325
2.780,53.6298
2.790,56.7164
2.800,55.2988
2.810,57.0830
2.820,54.8328
2.830,55.6836
2.840,62.5083
2.850,56.8494
2.860,63.9920
2.870,59.4878
2.880,61.5939
2.890,66.1351
2.900,63.4447
2.910,64.5152
2.920,60.7475
2.930,62.6002
2.940,63.5833
2.950,65.5654
2.960,67.3258
2.970,59.5117
2.980,65.0750
2.990,61.9050
3.000,62.7990
3.010,66.4183
3.020,64.2046
3.030,62.5148
3.040,62.3743
3.050,69.8469
3.060,60.9221
3.070,64.0303
3.080,67.3364
3.090,68.8115
3.100,59.6408
3.110,61.5259
3.120,59.3194
3.130,60.1434
3.140,65.9909
3.150,61.1402
3.160,67.8312
3.170,62.9238
3.180,59.8189
3.190,71.2695
3.200,69.9004
3.210,66.5176
3.220,63.6493
3.230,61.9831
3.240,65.4836
3.250,68.7354
3.260,61.8012
3.270,69.8972
3.280,65.7155
3.290,62.4014
3.300,62.0857
3.310,64.0717
3.320,60.0609
3.330,66.3875
3.340,63.8941
3.350,68.9179
3.360,66.3283
3.370,58.4379
3.380,67.3521
3.390,68.2542
3.400,68.5105
3.410,68.6640
3.420,69.5172
3.430,57.7156
3.440,61.0460
3.450,60.0587
3.460,59.9020
3.470,66.5613
3.480,61.3591
3.490,59.0908
3.500,60.0104
3.510,64.0430
3.520,62.3208
3.530,58.9506
3.540,64.7830
3.550,55.1907
3.560,56.9877
3.570,55.8325
3.580,55.7828
3.590,62.3817
3.600,54.3660
3.610,57.5358
3.620,59.3256
3.630,56.3648
3.640,57.3732
3.650,58.4261
3.660,58.2914
3.670,55.8445
3.680,63.3843
3.690,56.1693
3.700,54.1609
3.710,58.3908
3.720,55.8139
3.730,56.0640
3.740,60.3410
3.750,61.4852
3.760,60.2562
3.770,61.1703
3.780,59.1646
3.790,60.8206
3.800,55.7362
3.810,59.7259
3.820,62.3574
3.830,52.3413
3.840,57.9349
3.850,59.2249
3.860,53.9140
3.870,58.4310
3.880,58.6737
3.890,61.0197
3.900,60.4560
3.910,59.9064
3.920,55.7959
3.930,58.5864
3.940,61.7985
3.950,55.7688
3.960,59.2628
3.970,51.5608
3.980,50.8761
3.990,53.7010
4.000,56.8789
4.010,56.8374
4.020,52.0172
4.030,56.5650
4.040,57.3894
4.050,55.3006
4.060,52.9964
4.070,60.8310
4.080,62.1016
4.090,61.8181
4.100,63.0146
4.110,60.4213
4.120,58.1229
4.130,57.5371
4.140,63.0228
4.150,62.0382
4.160,54.4614
4.170,55.7102
4.180,57.3756
4.190,56.3695
4.200,53.2406
4.210,62.1555
4.220,56.5600
4.230,56.0524
4.240,56.4935
4.250,63.0994
4.260,56.8853
4.270,65.9139
4.280,57.6794
4.290,59.8015
4.300,65.9748
4.310,66.5083
4.320,61.1480
4.330,60.8718
4.340,62.0606
4.350,56.1866
4.360,63.6871
4.370,62.6818
4.380,64.3377
4.390,60.5326
4.400,65.6568
4.410,63.6421
4.420,68.8798
4.430,62.4861
4.440,69.4985
4.450,62.3231
4.460,66.6194
4.470,68.3445
4.480,59.0359
4.490,61.2833
4.500,60.8694
4.510,66.2207
4.520,58.9204
4.530,70.2127
4.540,64.7361
4.550,64.1270
4.560,70.4809
4.570,66.9618
4.580,64.6501
4.590,63.9949
4.600,68.3234
4.610,61.8841
4.620,60.9380
4.630,69.2174
4.640,61.8071
4.650,69.6296
4.660,61.1975
4.670,70.7014
4.680,67.3977
4.690,66.7096
4.700,68.4592
4.710,63.2407
4.720,61.5718
4.730,67.5911
4.740,66.4481
4.750,66.0285
4.760,69.9280
4.770,64.0236
4.780,62.9651
4.790,59.7065
4.800,67.4320
4.810,67.6670
4.820,62.5931
4.830,60.7420
4.840,61.4234
4.850,58.2899
4.860,65.7794
4.870,68.4717
4.880,64.0796
4.890,60.0132
4.900,61.0501
4.910,65.7304
4.920,58.1329
4.930,68.2057
4.940,66.9800
4.950,65.2636
4.960,66.1342
4.970,63.9616
4.980,56.4388
4.990,59.7440
5.000,58.6330
5.010,59.1781
5.020,58.7145
5.030,57.4227
5.040,57.1903
5.050,55.0135
5.060,63.2595
5.070,59.8240
5.080,59.4382
5.090,58.8937
5.100,62.9559
5.110,55.5957
5.120,62.7355
5.130,60.5471
5.140,52.8853
5.150,59.5338
5.160,53.9977
5.170,59.8436
5.180,63.1215
5.190,52.7961
5.200,60.9707
5.210,55.7594
5.220,51.1918
5.230,61.6773
5.240,54.6682
5.250,54.5459
5.260,58.2209
5.270,55.8539
5.280,55.6072
5.290,57.1652
5.300,56.8077
5.310,60.6838
5.320,50.0985
5.330,58.6421
5.340,59.8123
5.350,51.8391
5.360,61.5256
5.370,60.5324
5.380,52.4116
5.390,60.6183
5.400,55.4221
5.410,54.2184
5.420,58.2491
5.430,57.3623
5.440,61.0321
5.450,59.5234
5.460,51.4300
5.470,62.3604
5.480,55.2558
5.490,58.9551
5.500,62.6092
5.510,53.4821
5.520,57.4074
5.530,53.1321
5.540,52.5847
5.550,58.9879
5.560,62.6265
5.570,59.7707
5.580,55.2412
5.590,57.8864
5.600,53.0338
5.610,60.6115
5.620,61.8693
5.630,53.4674
5.640,56.2813
5.650,54.8928
5.660,60.5774
5.670,63.9350
5.680,61.4570
5.690,65.1460
5.700,62.5199
5.710,58.8957
5.720,59.6240
5.730,62.4468
5.740,57.1603
5.750,57.2627
5.760,62.6750
5.770,58.1442
5.780,67.1039
5.790,60.7261
5.800,56.8998
5.810,62.6365
5.820,61.1833
5.830,60.8998
5.840,68.1460
5.850,66.2596
5.860,69.7280
5.870,66.0414
5.880,65.8080
5.890,64.9181
5.900,59.4782
5.910,61.4935
5.920,61.2314
5.930,61.9913
5.940,62.9489
5.950,68.2173
5.960,62.2245
5.970,66.6897
5.980,71.1257
5.990,69.6362
6.000,69.7131
6.010,61.4936
6.020,69.9153
6.030,70.7624
6.040,66.7332
6.050,62.9769
6.060,66.2078
6.070,67.7734
6.080,70.0742
6.090,63.3988
6.100,71.7534
6.110,64.7267
6.120,68.3755
6.130,66.8662
6.140,67.6218
6.150,65.7513
6.160,69.0871
6.170,59.8539
6.180,67.2300
6.190,62.1548
6.200,65.9480
6.210,67.6430
6.220,66.1927
6.230,69.3577
6.240,65.5288
6.250,59.8442
6.260,60.9094
6.270,66.4760
6.280,64.6574
6.290,64.1250
6.300,59.1757
6.310,59.2925
6.320,60.1940
6.330,68.5264
6.340,60.4494
6.350,58.0020
6.360,66.8683
6.370,59.2352
6.380,59.3134
6.390,64.8662
6.400,62.5707
6.410,56.0725
6.420,62.7151
6.430,61.6057
6.440,60.1837
6.450,55.4901
6.460,65.7405
6.470,58.8007
6.480,65.6354
6.490,59.1049
6.500,56.3581
6.510,54.7730
6.520,63.1551
6.530,62.3965
6.540,59.1836
6.550,64.4227
6.560,60.7037
6.570,57.8098
6.580,57.9632
6.590,53.1462
6.600,52.0671
6.610,62.9229
6.620,63.2654
6.630,54.1881
6.640,60.9454
6.650,61.3266
6.660,59.3040
6.670,60.4599
6.680,58.9645
6.690,55.2836
6.700,62.1652
6.710,62.1252
6.720,51.3403
6.730,51.7879
6.740,52.3223
6.750,56.4366
6.760,54.0157
6.770,55.0073
6.780,61.6503
6.790,59.6341
6.800,50.9952
6.810,55.5186
6.820,60.6960
6.830,52.3960
6.840,57.0120
6.850,60.5399
6.860,54.5365
6.870,59.2711
6.880,52.0292
6.890,55.9381
6.900,50.9956
6.910,60.2874
6.920,51.3304
6.930,55.7193
6.940,56.9346
6.950,62.7378
6.960,57.1209
6.970,56.2904
6.980,52.0256
6.990,59.1875
7.000,56.0729
7.010,54.3625
7.020,63.3072
7.030,59.9704
7.040,60.8842
7.050,64.3815
7.060,61.5108
7.070,65.5501
7.080,63.9501
7.090,55.2070
7.100,61.7226
7.110,55.7085
7.120,60.3378
7.130,60.4149
7.140,55.8754
7.150,65.3956
7.160,61.2768
7.170,62.3532
7.180,57.6536
7.190,58.7875
7.200,67.0160
7.210,66.2718
7.220,59.2937
7.230,66.4628
7.240,62.7625
7.250,66.7423
7.260,67.0545
7.270,62.0384
7.280,61.8698
7.290,68.6506
7.300,63.7551
7.310,65.7030
7.320,61.8588
7.330,66.4042
7.340,67.1296
7.350,59.7007
7.360,59.2407
7.370,61.6772
7.380,59.3682
7.390,60.0091
7.400,67.5632
7.410,69.8599
7.420,65.6034
7.430,66.0705
7.440,61.5248
7.450,71.5509
7.460,67.6258
7.470,60.4873
7.480,61.2862
7.490,66.0198
7.500,64.3902
7.510,65.9717
7.520,66.2357
7.530,70.6910
7.540,64.4883
7.550,70.0962
7.560,70.1099
7.570,63.7112
7.580,70.7870
7.590,63.2986
7.600,63.9688
7.610,70.3107
7.620,62.4785
7.630,61.1117
7.640,65.8103
7.650,66.6698
7.660,65.2498
7.670,61.4733
7.680,59.0002
7.690,66.7703
7.700,67.9252
7.710,66.0570
7.720,66.0290
7.730,59.7534
7.740,59.0164
7.750,66.6091
7.760,58.7098
7.770,59.6544
7.780,60.3763
7.790,62.1667
7.800,59.2639
7.810,62.9638
7.820,56.1576
7.830,62.7982
7.840,57.7018
7.850,58.3297
7.860,64.5850
7.870,59.4276
7.880,61.4263
7.890,54.4814
7.900,59.9565
7.910,64.7945
7.920,56.4185
7.930,57.7212
7.940,54.6286
7.950,58.1129
7.960,56.2339
7.970,55.4778
7.980,55.2571
7.990,59.0838
8.000,57.2192
8.010,54.9880
8.020,56.5469
8.030,52.1852
8.040,51.9035
8.050,61.8449
8.060,62.1614
8.070,54.7592
8.080,52.7850
8.090,51.5845
8.100,56.2324
8.110,59.8738
8.120,61.1005
8.130,61.9277
8.140,60.8814
8.150,59.1937
8.160,52.9299
8.170,62.0082
8.180,57.6424
8.190,56.8807
8.200,57.7327
8.210,54.7902
8.220,61.1229
8.230,58.1291
8.240,53.6670
8.250,52.9337
8.260,59.8449
8.270,62.3122
8.280,62.4668
8.290,62.2371
8.300,55.2116
8.310,56.7403
8.320,60.4072
8.330,61.4633
8.340,60.2172
8.350,60.7960
8.360,58.6659
8.370,53.7488
8.380,62.8555
8.390,52.1309
8.400,54.5870
8.410,53.9851
8.420,54.5601
8.430,56.5287
8.440,63.9384
8.450,54.6727
8.460,58.9559
8.470,60.3645
8.480,55.5887
8.490,56.1382
8.500,57.3987
8.510,60.0698
8.520,61.5344
8.530,64.1423
8.540,56.0582
8.550,58.2471
8.560,64.2160
8.570,67.0599
8.580,67.4450
8.590,57.4749
8.600,65.9307
8.610,58.2517
8.620,64.6590
8.630,58.4785
8.640,66.4561
8.650,59.7822
8.660,66.5238
8.670,66.8323
8.680,59.9920
8.690,58.0506
8.700,58.8020
8.710,66.0898
8.720,68.2536
8.730,65.4675
8.740,61.7254
8.750,65.2596
8.760,63.1941
8.770,59.4202
8.780,66.7019
8.790,67.0134
8.800,59.5766
8.810,62.4484
8.820,67.6597
8.830,63.6365
8.840,61.9637
8.850,67.3668
8.860,60.6359
8.870,62.0985
8.880,63.9476
8.890,64.7850
8.900,67.9831
8.910,66.9114
8.920,60.6758
8.930,70.5242
8.940,67.6597
8.950,63.3942
8.960,71.6827
8.970,61.3998
8.980,69.9583
8.990,61.6916
9.000,61.7905
9.010,60.2513
9.020,61.1614
9.030,61.0625
9.040,61.4116
9.050,66.4741
9.060,59.8571
9.070,59.6614
9.080,70.4838
9.090,68.7658
9.100,66.3723
9.110,66.4493
9.120,66.9857
9.130,63.0707
9.140,61.0203
9.150,58.3309
9.160,66.9638
9.170,67.7892
9.180,62.7381
9.190,60.6480
9.200,57.8692
9.210,61.2586
9.220,62.8381
9.230,67.7854
9.240,58.9765
9.250,59.0908
9.260,62.6519
9.270,61.9036
9.280,60.9879
9.290,63.9559
9.300,55.5649
9.310,57.2921
9.320,65.6086
9.330,64.4903
9.340,54.7932
9.350,60.4760
9.360,63.1166
9.370,55.5577
9.380,63.0580
9.390,60.7563
9.400,59.1916
9.410,56.8561
9.420,55.0446
9.430,63.0895
9.440,58.9783
9.450,56.0892
9.460,53.8635
9.470,60.3102
9.480,52.7156
9.490,60.9119
9.500,62.1497
9.510,60.4041
9.520,54.3436
9.530,57.8480
9.540,59.7561
9.550,60.9246
9.560,55.2029
9.570,61.8349
9.580,57.7928
9.590,60.2652
9.600,53.0310
9.610,53.1830
9.620,56.4291
9.630,56.6117
9.640,59.2311
9.650,57.0163
9.660,52.6707
9.670,56.1867
9.680,54.4824
9.690,55.3243
9.700,53.3495
9.710,57.6558
9.720,62.1085
9.730,60.0362
9.740,61.5443
9.750,53.7151
9.760,62.9557
9.770,53.1750
9.780,55.4212
9.790,62.6606
9.800,56.8547
9.810,55.8588
9.820,52.5143
9.830,56.5339
9.840,64.1293
9.850,54.2965
9.860,55.6828
9.870,57.9868
9.880,60.0859
9.890,64.2002
9.900,54.9994
9.910,60.9908
9.920,54.4918
9.930,54.9988
9.940,59.7020
9.950,66.3124
9.960,64.1443
9.970,58.8239
9.980,66.8426
9.990,58.6810
10.000,65.9574
10.010,56.7482
10.020,66.3495
10.030,63.3198
10.040,58.0535
10.050,62.6899
10.060,57.8340
10.070,57.8323
10.080,68.4811
10.090,64.2919
10.100,64.3522
10.110,65.0881
10.120,63.2536
10.130,61.1516
10.140,64.6147
10.150,59.1350
10.160,63.3137
10.170,70.3016
10.180,63.7933
10.190,63.9022
10.200,65.3085
10.210,59.9015
10.220,69.1660
10.230,70.9943
10.240,63.3343
10.250,69.9464
10.260,61.3698
10.270,71.8905
10.280,66.7883
10.290,63.4790
10.300,66.3960
10.310,68.5065
10.320,69.8766
10.330,69.2593
10.340,71.4312
10.350,62.0563
10.360,71.1155
10.370,66.3194
10.380,68.7932
10.390,71.7993
10.400,64.7121
10.410,64.4056
10.420,66.2926
10.430,68.9621
10.440,65.4498
10.450,63.6855
10.460,71.1980
10.470,70.5237
10.480,62.0074
10.490,67.5767
10.500,66.3790
10.510,60.9328
10.520,61.4626
10.530,69.9094
10.540,66.8384
10.550,59.3233
10.560,60.8325
10.570,59.6076
10.580,66.8842
10.590,59.3974
10.600,63.2560
10.610,61.5215
10.620,60.6403
10.630,60.4171
10.640,63.3181
10.650,68.2766
10.660,60.3272
10.670,61.1597
10.680,65.1645
10.690,60.2161
10.700,58.0681
10.710,59.3613
10.720,63.8991
10.730,56.2105
10.740,56.8939
10.750,61.0994
10.760,62.3130
10.770,54.8231
10.780,61.4494
10.790,59.6145
10.800,63.4514
10.810,59.8152
10.820,63.7984
10.830,61.1508
10.840,62.9583
10.850,63.9266
10.860,58.0052
10.870,63.0298
10.880,55.2062
10.890,57.6799
10.900,60.0487
10.910,58.4090
10.920,55.5748
10.930,57.9285
10.940,59.7703
10.950,52.3235
10.960,62.8109
10.970,54.7629
10.980,58.0270
10.990,58.0103
11.000,52.7283
11.010,59.8172
11.020,60.2223
11.030,60.2008
11.040,60.0511
11.050,57.8561
11.060,55.8026
11.070,60.6109
11.080,57.8883
11.090,56.2891
11.100,54.7416
11.110,52.7282
11.120,54.0797
11.130,54.5110
11.140,61.9156
11.150,53.7237
11.160,51.1529
11.170,59.7245
11.180,52.2158
11.190,62.6665
11.200,58.6157
11.210,54.4411
11.220,54.5676
11.230,52.1716
11.240,59.5617
11.250,58.1731
11.260,54.5435
11.270,63.2457
11.280,56.6462
11.290,64.4878
11.300,62.0517
11.310,60.1032
11.320,55.2483
11.330,62.1939
11.340,64.0347
11.350,64.8640
11.360,63.1033
11.370,59.8524
11.380,65.0056
11.390,64.0070
11.400,60.9610
11.410,60.0632
11.420,62.4339
11.430,67.4816
11.440,65.9036
11.450,65.9870
11.460,63.7840
11.470,68.3904
11.480,64.2696
11.490,64.6402
11.500,67.5934
11.510,61.2778
11.520,63.4760
11.530,64.2167
11.540,62.3525
11.550,67.6239
11.560,65.8170
11.570,64.6537
11.580,66.4788
11.590,61.4827
11.600,67.3595
11.610,68.3814
11.620,70.5421
11.630,62.7722
11.640,70.1219
11.650,59.5808
11.660,71.0154
11.670,66.7185
11.680,64.7872
11.690,69.9900
11.700,66.0302
11.710,66.8503
11.720,69.1208
11.730,62.5327
11.740,69.7549
11.750,65.2363
11.760,69.5732
11.770,62.8425
11.780,70.8094
11.790,63.3237
11.800,62.9750
11.810,72.1454
11.820,60.6126
11.830,63.4550
11.840,70.4259
11.850,71.0119
11.860,71.4267
11.870,70.0416
11.880,68.1331
11.890,67.7864
11.900,62.5055
11.910,69.3255
11.920,65.7081
11.930,60.3638
11.940,61.3429
11.950,62.7518
11.960,64.7740
11.970,62.5176
11.980,60.7373
11.990,66.0760
12.000,62.6026
12.010,66.5564
12.020,64.1636
12.030,61.8960
12.040,59.3674
12.050,69.3452
12.060,59.3759
12.070,62.3590
12.080,61.6756
12.090,68.1988
12.100,66.5612
12.110,59.5594
12.120,62.8363
12.130,67.6023
12.140,56.5090
12.150,66.9589
12.160,55.9060
12.170,64.4001
12.180,58.7932
12.190,64.2411
12.200,65.1397
12.210,60.8718
12.220,60.8713
12.230,63.5401
12.240,59.7775
12.250,58.4624
12.260,53.5091
12.270,64.0299
12.280,54.3026
12.290,62.3684
12.300,52.7984
12.310,61.8609
12.320,56.5829
12.330,55.8392
12.340,52.3463
12.350,63.0221
12.360,56.5675
12.370,60.0590
12.380,57.0012
12.390,55.5506
12.400,59.2091
12.410,54.6838
12.420,61.0950
12.430,53.8269
12.440,57.8814
12.450,60.5305
12.460,60.8938
12.470,53.5767
12.480,57.3273
12.490,53.2465
12.500,61.0731
12.510,62.1951
12.520,59.2428
12.530,60.1934
12.540,62.7669
12.550,57.6622
12.560,54.9674
12.570,62.2319
12.580,59.5621
12.590,56.2094
12.600,51.4314
12.610,63.2124
12.620,54.8709
12.630,60.6672
12.640,57.5978
12.650,53.0025
12.660,61.7838
12.670,58.4445
12.680,60.2764
12.690,64.1738
12.700,56.9868
12.710,61.6589
12.720,57.5110
12.730,55.1607
12.740,62.1541
12.750,57.6966
12.760,57.7594
12.770,58.9692
12.780,65.7364
12.790,64.4877
12.800,64.2196
12.810,61.5324
12.820,66.7111
12.830,57.6452
12.840,65.9024
12.850,65.5898
12.860,62.1459
12.870,67.9903
12.880,60.6990
12.890,60.5544
12.900,63.5252
12.910,56.8953
12.920,62.5598
12.930,64.4115
12.940,67.9453
12.950,57.9842
12.960,64.9747
12.970,59.5645
12.980,63.1408
12.990,65.6942
13.000,63.9727
13.010,66.1804
13.020,62.1441
13.030,62.3932
13.040,66.9226
13.050,68.7164
13.060,66.2084
13.070,68.2903
13.080,67.6708
13.090,62.9698
13.100,67.3652
13.110,67.3357
13.120,66.2821
13.130,66.3185
13.140,71.1297
13.150,66.3453
13.160,63.2193
13.170,60.7626
13.180,72.1095
13.190,64.8151
13.200,61.1614
13.210,66.3090
13.220,68.7847
13.230,60.8759
13.240,61.2084
13.250,60.6869
13.260,61.0180
13.270,63.2513
13.280,70.9675
13.290,71.7453
13.300,67.5515
13.310,65.7797
13.320,72.1343
13.330,62.8987
13.340,61.0936
13.350,62.8231
13.360,69.4229
13.370,67.5380
13.380,70.7824
13.390,71.1677
13.400,60.8465
13.410,59.3774
13.420,62.8904
13.430,66.3957
13.440,60.4901
13.450,64.9059
13.460,64.5348
13.470,66.5693
13.480,64.7818
13.490,60.1755
13.500,59.9231
13.510,64.0653
13.520,64.6414
13.530,57.6883
13.540,61.9706
13.550,65.4798
13.560,64.3792
13.570,67.0611
13.580,57.7659
13.590,59.4012
13.600,57.8148
13.610,60.8971
13.620,64.0539
13.630,61.7369
13.640,57.7693
13.650,60.8999
13.660,64.8923
13.670,59.0023
13.680,57.7925
13.690,63.2328
13.700,64.7486
13.710,63.7054
13.720,61.7355
13.730,59.7705
13.740,64.5741
13.750,54.5163
13.760,62.3621
13.770,63.0347
13.780,62.1003
13.790,61.0662
13.800,54.0426
13.810,60.9352
13.820,56.4366
13.830,57.6634
13.840,56.8418
13.850,63.0686
13.860,59.2090
13.870,60.1033
13.880,57.4773
13.890,51.1075
13.900,60.9725
13.910,58.9491
13.920,54.1464
13.930,60.5113
13.940,54.7160
13.950,60.6877
13.960,60.8382
13.970,58.6120
13.980,58.2182
13.990,54.0889
14.000,54.5162
14.010,61.7604
14.020,53.9638
14.030,61.3815
14.040,62.5997
14.050,53.3975
14.060,60.4996
14.070,63.6708
14.080,52.1736
14.090,61.2531
14.100,56.7283
14.110,59.9655
14.120,59.4743
14.130,60.8504
14.140,53.8512
14.150,59.5803
14.160,64.0296
14.170,65.0132
14.180,58.5571
14.190,65.1001
14.200,65.9911
14.210,62.8950
14.220,56.9184
14.230,61.6528
14.240,64.4061
14.250,66.4716
14.260,66.8369
14.270,64.7949
14.280,66.3165
14.290,62.7531
14.300,60.7745
14.310,67.0190
14.320,57.7504
14.330,65.6881
14.340,67.1338
14.350,57.9062
14.360,65.8868
14.370,66.2668
14.380,58.7122
14.390,66.4334
14.400,64.1545
14.410,68.3928
14.420,59.4187
14.430,67.8782
14.440,65.0253
14.450,70.8700
14.460,66.2665
14.470,68.3305
14.480,68.1212
14.490,70.2541
14.500,66.9644
14.510,60.7703
14.520,63.5431
14.530,60.6481
14.540,67.3171
14.550,66.6477
14.560,60.4557
14.570,66.5853
14.580,63.4075
14.590,71.2306
14.600,70.6116
14.610,68.4859
14.620,66.1732
14.630,65.8495
14.640,65.8046
14.650,71.4763
14.660,63.5553
14.670,64.8140
14.680,64.0269
14.690,66.0422
14.700,71.2968
14.710,66.4292
14.720,71.0736
14.730,66.9630
14.740,65.4656
14.750,70.6307
14.760,66.3238
14.770,61.2728
14.780,68.8465
14.790,62.2865
14.800,68.5069
14.810,59.6601
14.820,66.8159
14.830,65.1260
14.840,61.0832
14.850,59.3247
14.860,60.0454
14.870,63.7267
14.880,70.1433
14.890,64.5337
14.900,58.2810
14.910,58.1983
14.920,67.2202
14.930,57.7454
14.940,60.5590
14.950,66.8746
14.960,65.6977
14.970,64.9138
14.980,67.0199
14.990,65.1429
15.000,57.5399
15.010,59.2169
15.020,63.5162
15.030,61.1775
15.040,62.4125
15.050,64.5628
15.060,70.7451
15.070,68.2536
15.080,64.2486
15.090,75.7716
15.100,65.5474
15.110,68.4044
15.120,74.9480
15.130,71.4045
15.140,78.0306
15.150,81.5839
15.160,71.6390
15.170,71.9617
15.180,81.7017
15.190,75.2323
15.200,75.0904
15.210,85.0987
15.220,83.9416
15.230,86.0004
15.240,82.8331
15.250,80.7253
15.260,85.6946
15.270,90.9250
15.280,89.3954
15.290,94.8826
15.300,95.5926
15.310,89.6083
15.320,94.1769
15.330,97.8271
15.340,98.4632
15.350,94.0839
15.360,92.9051
15.370,93.2709
15.380,91.5137
15.390,93.2264
15.400,97.3687
15.410,99.4620
15.420,102.9242
15.430,96.4183
15.440,106.6456
15.450,108.5297
15.460,100.3635
15.470,106.0280
15.480,109.8549
15.490,103.9920
15.500,105.0084
15.510,114.1110
15.520,110.3310
15.530,106.5296
15.540,113.2335
15.550,112.6034
15.560,118.3191
15.570,117.5766
15.580,114.3313
15.590,118.9068
15.600,116.7465
15.610,120.1544
15.620,123.7589
15.630,121.4420
15.640,124.7423
15.650,127.7353
15.660,120.9143
15.670,129.3553
15.680,119.8452
15.690,122.9812
15.700,125.6637
15.710,126.1377
15.720,134.0967
15.730,127.1579
15.740,134.5640
15.750,135.3664
15.760,129.7542
15.770,129.7664
15.780,131.4236
15.790,135.9946
15.800,131.9600
15.810,135.3308
15.820,135.4355
15.830,142.0470
15.840,140.6764
15.850,141.2656
15.860,143.0215
15.870,143.4174
15.880,149.9541
15.890,143.3086
15.900,140.9381
15.910,145.4359
15.920,153.2637
15.930,151.6255
15.940,148.8179
15.950,154.2427
15.960,146.8644
15.970,154.9446
15.980,153.0617
15.990,152.6359
16.000,151.8951
16.010,157.3240
16.020,150.6845
16.030,159.0453
16.040,151.8564
16.050,152.5150
16.060,153.7476
16.070,161.0325
16.080,159.6089
16.090,151.5228
16.100,154.5811
16.110,150.2319
16.120,154.0743
16.130,154.6994
16.140,159.9174
16.150,150.8736
16.160,157.2305
16.170,155.4696
16.180,151.8827
16.190,157.1226
16.200,152.9603
16.210,153.1789
16.220,153.7551
16.230,157.7767
16.240,159.4670
16.250,150.7421
16.260,159.6393
16.270,157.8196
16.280,157.0738
16.290,150.8866
16.300,154.4014
16.310,154.4590
16.320,156.2722
16.330,157.0935
16.340,159.6366
16.350,158.3021
16.360,159.1919
16.370,151.5891
16.380,157.6059
16.390,153.3600
16.400,151.0842
16.410,161.3487
16.420,153.0110
16.430,160.2182
16.440,160.8142
16.450,157.8089
16.460,154.2801
16.470,160.2380
16.480,158.7009
16.490,159.8879
16.500,158.0935
16.510,159.5551
16.520,154.5863
16.530,159.3189
16.540,149.9357
16.550,151.8874
16.560,157.7044
16.570,155.0672
16.580,153.1487
16.590,151.1452
16.600,161.2741
16.610,158.3574
16.620,154.1907
16.630,154.9007
16.640,155.7918
16.650,149.8839
16.660,149.6579
16.670,151.4065
16.680,161.4842
16.690,156.7286
16.700,153.8856
16.710,158.3065
16.720,154.8733
16.730,155.8542
16.740,159.7907
16.750,156.8427
16.760,156.4543
16.770,156.3697
16.780,159.2817
16.790,155.2790
16.800,149.7334
16.810,160.5959
16.820,154.6779
16.830,160.9972
16.840,159.9881
16.850,160.2368
16.860,159.4711
16.870,150.4151
16.880,156.0129
16.890,150.3272
16.900,152.7064
16.910,154.5736
16.920,158.7281
16.930,156.9684
16.940,154.1655
16.950,149.7063
16.960,151.1749
16.970,151.2492
16.980,160.8215
16.990,159.1692
17.000,53.7979
17.010,58.3620
17.020,53.7363
17.030,61.6985
17.040,54.2353
17.050,54.9688
17.060,59.4474
17.070,66.3643
17.080,60.8989
17.090,55.2549
17.100,56.1298
17.110,63.4542
17.120,66.0655
17.130,56.7208
17.140,63.5662
17.150,57.3342
17.160,63.6443
17.170,60.9763
17.180,58.9740
17.190,61.7117
17.200,60.6159
17.210,58.2371
17.220,60.9911
17.230,67.8410
17.240,62.4630
17.250,67.7199
17.260,64.5670
17.270,65.8966
17.280,61.6440
17.290,60.1265
17.300,62.7617
17.310,70.9235
17.320,60.7445
17.330,71.6385
17.340,70.8390
17.350,66.2334
17.360,62.3606
17.370,64.1021
17.380,61.5777
17.390,65.2247
17.400,61.5366
17.410,61.9542
17.420,71.2585
17.430,66.9123
17.440,67.2277
17.450,61.0979
17.460,70.6922
17.470,66.1545
17.480,68.7876
17.490,66.3116
17.500,62.6897
17.510,72.9226
17.520,69.7602
17.530,72.0147
17.540,66.5093
17.550,61.1641
17.560,70.9152
17.570,68.1276
17.580,65.2105
17.590,61.7565
17.600,61.6983
17.610,60.8600
17.620,68.2786
17.630,69.8796
17.640,60.2261
17.650,65.1827
17.660,65.5701
17.670,62.2610
17.680,63.8746
17.690,60.9828
17.700,71.2260
17.710,66.5306
17.720,61.0705
17.730,61.8664
17.740,62.5331
17.750,68.5258
17.760,64.1498
17.770,68.4099
17.780,65.5995
17.790,57.9836
17.800,66.1771
17.810,65.2511
17.820,67.4701
17.830,67.3416
17.840,58.9403
17.850,61.5833
17.860,58.5523
17.870,63.8488
17.880,58.0040
17.890,63.2738
17.900,63.0564
17.910,60.1030
17.920,55.1751
17.930,64.5588
17.940,55.3443
17.950,60.3086
17.960,61.6650
17.970,59.1284
17.980,59.5847
17.990,55.1197
18.000,55.9545
18.010,53.9429
18.020,60.8950
18.030,58.2229
18.040,64.5863
18.050,53.4537
18.060,52.7004
18.070,52.5501
18.080,63.8820
18.090,57.7767
18.100,53.3777
18.110,52.8904
18.120,53.0907
18.130,52.7459
18.140,62.6450
18.150,55.2363
18.160,58.6209
18.170,61.8261
18.180,62.8767
18.190,54.0785
18.200,52.5650
18.210,58.7042
18.220,53.9605
18.230,56.7351
18.240,58.3166
18.250,54.1690
18.260,59.2335
18.270,58.2910
18.280,59.3977
18.290,53.0507
18.300,52.9165
18.310,52.2366
18.320,54.0417
18.330,56.2151
18.340,53.9658
18.350,61.0668
18.360,54.2638
18.370,54.1116
18.380,53.3535
18.390,59.2548
18.400,60.9452
18.410,60.9821
18.420,59.6394
18.430,62.3164
18.440,61.5702
18.450,54.8708
18.460,55.3635
18.470,61.3172
18.480,65.4464
18.490,61.7337
18.500,64.4747
18.510,63.3940
18.520,66.3970
18.530,56.7006
18.540,64.3122
18.550,59.0130
18.560,63.2413
18.570,60.9409
18.580,62.0613
18.590,59.8335
18.600,57.7596
18.610,62.1649
18.620,58.4657
18.630,58.3073
18.640,68.0549
18.650,60.5287
18.660,67.2357
18.670,66.9401
18.680,65.8697
18.690,70.3462
18.700,68.9696
18.710,68.5673
18.720,63.5637
18.730,62.0883
18.740,67.1505
18.750,67.7048
18.760,71.2282
18.770,66.4998
18.780,67.6698
18.790,71.7494
18.800,67.7776
18.810,67.4988
18.820,63.4433
18.830,66.9033
18.840,70.7700
18.850,61.7706
18.860,67.1392
18.870,68.7379
18.880,65.9390
18.890,62.8998
18.900,68.8859
18.910,62.4713
18.920,65.8126
18.930,64.1261
18.940,71.3095
18.950,62.1884
18.960,72.6551
18.970,66.6155
18.980,67.5970
18.990,69.6898
19.000,66.5316
19.010,68.8960
19.020,72.1618
19.030,61.9408
19.040,67.6398
19.050,72.0178
19.060,70.8914
19.070,61.5894
19.080,61.5669
19.090,66.9190
19.100,60.6950
19.110,66.8131
19.120,66.8934
19.130,66.1341
19.140,70.2146
19.150,64.5909
19.160,70.7251
19.170,67.6094
19.180,62.1047
19.190,59.1482
19.200,64.6755
19.210,61.4882
19.220,69.5006
19.230,68.2990
19.240,66.5766
19.250,57.5671
19.260,63.6981
19.270,57.3623
19.280,56.7311
19.290,58.7892
19.300,62.3912
19.310,67.1204
19.320,61.0152
19.330,60.9152
19.340,60.4192
19.350,61.2384
19.360,62.3970
19.370,64.2878
19.380,66.3479
19.390,58.6596
19.400,64.8434
19.410,62.6244
19.420,65.7093
19.430,61.7110
19.440,61.5552
19.450,64.9035
19.460,58.4755
19.470,56.4582
19.480,56.9220
19.490,52.8783
19.500,60.1426
19.510,57.3293
19.520,56.6213
19.530,63.8226
19.540,57.5882
19.550,55.4495
19.560,57.1491
19.570,60.0799
19.580,58.7929
19.590,63.7288
19.600,58.7172
19.610,58.1312
19.620,60.8029
19.630,61.7854
19.640,59.5147
19.650,59.7472
19.660,58.4103
19.670,60.0373
19.680,63.0648
19.690,54.7157
19.700,57.0628
19.710,57.8047
19.720,63.4428
19.730,55.1415
19.740,60.3610
19.750,53.4215
19.760,61.7755
19.770,63.1156
19.780,54.1628
19.790,60.3892
19.800,60.3677
19.810,58.6771
19.820,59.4390
19.830,57.0222
19.840,53.4056
19.850,65.2669
19.860,58.7134
19.870,65.1266
19.880,61.8289
19.890,58.7572
19.900,64.2818
19.910,63.2190
19.920,60.8597
19.930,56.6545
19.940,55.7215
19.950,59.5391
19.960,63.6153
19.970,60.5110
19.980,62.2700
19.990,67.4124
20.000,64.7582
20.010,66.9605
20.020,61.6055
20.030,62.5697
20.040,63.4660
20.050,59.4539
20.060,62.8451
20.070,69.4898
20.080,62.0205
20.090,58.9386
20.100,68.9026
20.110,69.9972
20.120,68.7124
20.130,64.4173
20.140,67.3844
20.150,63.3609
20.160,61.3903
20.170,71.4775
20.180,68.2981
20.190,60.2542
20.200,62.8227
20.210,71.8713
20.220,69.8804
20.230,67.1730
20.240,70.0734
20.250,62.5599
20.260,70.6335
20.270,70.9509
20.280,68.1234
20.290,68.9975
20.300,64.5582
20.310,63.7014
20.320,62.3445
20.330,65.4604
20.340,70.9822
20.350,72.9901
20.360,65.2725
20.370,64.4080
20.380,68.6390
20.390,69.1347
20.400,62.5505
20.410,69.3465
20.420,64.6009
20.430,71.3297
20.440,71.0972
20.450,72.5023
20.460,71.3401
20.470,72.4083
20.480,70.1661
20.490,71.2702
20.500,61.4441
20.510,68.0799
20.520,63.2597
20.530,61.8128
20.540,62.9113
20.550,70.0691
20.560,63.8277
20.570,62.6352
20.580,64.4119
20.590,65.7057
20.600,70.8755
20.610,60.7662
20.620,69.4309
20.630,63.3451
20.640,59.5604
20.650,68.8128
20.660,69.7498
20.670,63.2541
20.680,58.2201
20.690,63.3333
20.700,60.3301
20.710,61.8361
20.720,60.2917
20.730,57.4390
20.740,59.6337
20.750,56.3054
20.760,56.3143
20.770,62.1532
20.780,60.7114
20.790,65.2505
20.800,64.0989
20.810,62.2275
20.820,63.6843
20.830,55.0199
20.840,61.0172
20.850,65.8460
20.860,64.3468
20.870,57.7504
20.880,56.3022
20.890,55.8304
20.900,57.0356
20.910,55.3201
20.920,61.7849
20.930,59.2453
20.940,57.1019
20.950,59.7506
20.960,63.6222
20.970,57.5748
20.980,52.3311
20.990,60.7080
21.000,53.6745
21.010,54.1894
21.020,61.4770
21.030,63.8069
21.040,51.9953
21.050,59.0973
21.060,56.9789
21.070,62.1803
21.080,59.0484
21.090,60.7332
21.100,59.0982
21.110,62.2883
21.120,53.0484
21.130,60.2573
21.140,63.9797
21.150,52.4347
21.160,57.1113
21.170,63.4478
21.180,62.8895
21.190,63.9879
21.200,54.5314
21.210,61.9214
21.220,56.2245
21.230,55.7980
21.240,60.5702
21.250,61.3766
21.260,64.2652
21.270,55.9652
21.280,63.9760
21.290,55.5930
21.300,61.3925
21.310,54.4351
21.320,60.1227
21.330,60.6021
21.340,65.5205
21.350,66.0888
21.360,58.2688
21.370,67.0901
21.380,64.1030
21.390,57.5219
21.400,63.7572
21.410,58.4254
21.420,66.5771
21.430,58.3334
21.440,63.6620
21.450,67.6841
21.460,69.1653
21.470,65.6615
21.480,59.0232
21.490,58.6400
21.500,68.9375
21.510,65.7188
21.520,65.5961
21.530,64.4303
21.540,59.7390
21.550,64.8867
21.560,62.1359
21.570,63.0839
21.580,70.6415
21.590,64.3678
21.600,62.8799
21.610,66.8603
21.620,62.9157
21.630,61.6473
21.640,65.5150
21.650,69.5054
21.660,71.6229
21.670,61.1180
21.680,70.7131
21.690,67.8860
21.700,72.6492
21.710,62.9260
21.720,71.5239
21.730,72.8058
21.740,64.5300
21.750,63.6686
21.760,65.5517
21.770,67.2981
21.780,68.6542
21.790,71.6909
21.800,71.9525
21.810,66.8008
21.820,63.5777
21.830,70.5434
21.840,62.6454
21.850,72.0426
21.860,66.4432
21.870,62.0237
21.880,72.5072
21.890,67.2715
21.900,72.4537
21.910,64.2584
21.920,69.7824
21.930,63.3492
21.940,64.0975
21.950,71.2774
21.960,61.0481
21.970,71.9846
21.980,67.9479
21.990,63.8181
22.000,69.6454
22.010,65.3263
22.020,60.8434
22.030,61.3676
22.040,68.5730
22.050,59.2251
22.060,61.4458
22.070,68.2182
22.080,69.3812
22.090,58.1558
22.100,68.7500
22.110,59.9016
22.120,68.4888
22.130,62.1825
22.140,65.6455
22.150,65.2289
22.160,67.2910
22.170,56.8042
22.180,68.0196
22.190,63.1925
22.200,64.2380
22.210,59.0430
22.220,62.1934
22.230,65.5503
22.240,60.3062
22.250,55.4047
22.260,60.9537
22.270,60.3493
22.280,65.1917
22.290,59.6655
22.300,58.9872
22.310,56.9125
22.320,54.3670
22.330,63.6901
22.340,53.4719
22.350,64.3264
22.360,60.7795
22.370,53.6198
22.380,54.8873
22.390,54.5861
22.400,54.7261
22.410,54.7664
22.420,52.7701
22.430,63.3978
22.440,60.3236
22.450,63.3393
22.460,57.9242
22.470,56.9312
22.480,55.3407
22.490,53.5112
22.500,59.6237
22.510,57.3304
22.520,53.9153
22.530,54.6225
22.540,60.7068
22.550,61.6288
22.560,62.2166
22.570,59.1670
22.580,57.7690
22.590,53.5835
22.600,61.7436
22.610,64.1490
22.620,59.4661
22.630,54.5592
22.640,56.7768
22.650,55.7010
22.660,60.9339
22.670,54.4944
22.680,64.9390
22.690,60.7654
22.700,64.6284
22.710,60.8170
22.720,63.9005
22.730,63.9868
22.740,59.1215
22.750,56.9377
22.760,64.6148
22.770,56.1009
22.780,61.8277
22.790,56.5705
22.800,60.7956
22.810,56.9706
22.820,61.8909
22.830,62.0672
22.840,62.7623
22.850,60.5426
22.860,63.6075
22.870,68.9904
22.880,61.8143
22.890,66.5460
22.900,68.9457
22.910,64.1025
22.920,66.2636
22.930,60.5222
22.940,63.4801
22.950,59.4401
22.960,70.5689
22.970,67.3282
22.980,63.0260
22.990,60.7119
23.000,66.7679
23.010,60.0901
23.020,63.0594
23.030,71.4855
23.040,72.2634
23.050,64.3821
23.060,71.7564
23.070,61.3487
23.080,62.2434
23.090,65.6883
23.100,61.6603
23.110,62.1642
23.120,72.5008
23.130,63.1272
23.140,64.1952
23.150,63.9116
23.160,71.2079
23.170,64.4477
23.180,67.9936
23.190,72.6414
23.200,62.5969
23.210,65.4159
23.220,71.6795
23.230,66.0023
23.240,65.5524
23.250,71.7739
23.260,72.8997
23.270,62.1453
23.280,62.1130
23.290,64.6895
23.300,63.3242
23.310,68.7657
23.320,70.7212
23.330,69.3724
23.340,69.3334
23.350,63.0463
23.360,60.9969
23.370,68.8324
23.380,61.7159
23.390,70.7769
23.400,64.8456
23.410,69.2258
23.420,71.7641
23.430,71.0982
23.440,61.3443
23.450,60.2203
23.460,69.1462
23.470,70.2027
23.480,67.3456
23.490,65.7730
23.500,58.5003
23.510,64.4716
23.520,69.5986
23.530,60.9922
23.540,68.3298
23.550,60.4502
23.560,68.8115
23.570,66.3800
23.580,64.5847
23.590,64.8309
23.600,64.2550
23.610,62.4294
23.620,66.9328
23.630,67.2822
23.640,62.4814
23.650,55.9619
23.660,64.6972
23.670,55.7794
23.680,54.9708
23.690,55.5298
23.700,57.0020
23.710,63.9799
23.720,65.4967
23.730,59.1401
23.740,62.2161
23.750,62.2536
23.760,65.4253
23.770,64.8762
23.780,65.0352
23.790,58.3110
23.800,58.6771
23.810,53.5934
23.820,56.5084
23.830,59.1219
23.840,60.6680
23.850,56.3895
23.860,64.0235
23.870,56.5591
23.880,55.9867
23.890,58.9413
23.900,60.9044
23.910,57.4736
23.920,58.3732
23.930,54.7581
23.940,54.0945
23.950,60.1414
23.960,63.5137
23.970,59.6274
23.980,61.9407
23.990,60.8710
24.000,59.7869
24.010,61.3900
24.020,62.8830
24.030,63.6782
24.040,64.4112
24.050,62.9413
24.060,55.7671
24.070,55.6305
24.080,63.0605
24.090,60.9006
24.100,65.4360
24.110,54.6786
24.120,64.5998
24.130,57.9883
24.140,60.7643
24.150,61.1563
24.160,62.9913
24.170,62.0130
24.180,57.5271
24.190,55.6760
24.200,60.7193
24.210,55.9827
24.220,63.8262
24.230,55.9968
24.240,59.2641
24.250,62.8355
24.260,58.1159
24.270,64.1613
24.280,65.7188
24.290,57.4335
24.300,65.4471
24.310,59.7440
24.320,61.1404
24.330,63.7469
24.340,59.5861
24.350,66.6329
24.360,61.2749
24.370,63.1415
24.380,59.5605
24.390,69.3955
24.400,68.9851
24.410,69.8564
24.420,62.8073
24.430,61.2657
24.440,61.3470
24.450,64.4155
24.460,68.9436
24.470,62.8570
24.480,62.1750
24.490,61.1505
24.500,68.3967
24.510,67.7441
24.520,72.1178
24.530,65.2726
24.540,66.1514
24.550,66.7573
24.560,66.4562
24.570,68.0722
24.580,65.4841
24.590,65.0876
24.600,62.7733
24.610,63.7591
24.620,68.8864
24.630,64.1412
24.640,62.3511
24.650,73.5977
24.660,62.3301
24.670,62.9255
24.680,73.0583
24.690,73.1762
24.700,62.2884
24.710,62.3752
24.720,67.8712
24.730,62.0693
24.740,69.1189
24.750,71.6818
24.760,66.2045
24.770,63.6646
24.780,72.8089
24.790,69.3385
24.800,65.9028
24.810,65.8773
24.820,70.7981
24.830,72.3934
24.840,63.0952
24.850,66.2421
24.860,67.4957
24.870,61.0099
24.880,60.6783
24.890,60.5711
24.900,59.1595
24.910,64.1068
24.920,63.4684
24.930,58.8319
24.940,68.9143
24.950,61.6152
24.960,58.6828
24.970,68.1508
24.980,66.6658
24.990,66.1450
25.000,66.6891
25.010,62.4996
25.020,67.4677
25.030,64.9072
25.040,63.3871
25.050,58.4103
25.060,58.7556
25.070,62.3951
25.080,58.4873
25.090,56.4942
25.100,57.6904
25.110,58.8875
25.120,56.4921
25.130,64.4004
25.140,55.6765
25.150,63.9425
25.160,62.8311
25.170,57.7112
25.180,58.2324
25.190,59.0203
25.200,60.2162
25.210,63.8792
25.220,58.8128
25.230,59.3111
25.240,55.3305
25.250,53.6045
25.260,61.7830
25.270,62.4084
25.280,53.9017
25.290,55.7403
25.300,62.1229
25.310,59.9541
25.320,55.5117
25.330,61.1226
25.340,62.6304
25.350,54.2680
25.360,58.0122
25.370,62.2392
25.380,62.5531
25.390,55.7819
25.400,56.2038
25.410,54.1118
25.420,59.9164
25.430,55.6791
25.440,52.9058
25.450,63.1359
25.460,64.2907
25.470,58.6597
25.480,61.9441
25.490,57.3630
25.500,62.7039
25.510,59.4525
25.520,59.7050
25.530,57.2766
25.540,64.2409
25.550,58.9869
25.560,55.1311
25.570,60.0310
25.580,58.6588
25.590,55.6603
25.600,61.2562
25.610,59.8588
25.620,59.7876
25.630,57.6583
25.640,67.2296
25.650,65.4896
25.660,67.7358
25.670,64.5674
25.680,57.4554
25.690,59.9597
25.700,60.8420
25.710,64.7063
25.720,63.0362
25.730,61.8591
25.740,59.2634
25.750,65.0868
25.760,66.6576
25.770,61.7778
25.780,64.1249
25.790,62.1204
25.800,67.2036
25.810,67.6489
25.820,69.6755
25.830,62.5489
25.840,61.0947
25.850,62.2184
25.860,62.8593
25.870,63.5094
25.880,71.8747
25.890,70.8116
25.900,63.1678
25.910,62.0396
25.920,62.6234
25.930,72.8714
25.940,69.0001
25.950,69.0097
25.960,71.8190
25.970,66.0144
25.980,61.7596
25.990,69.1871
26.000,62.3360
26.010,68.5007
26.020,72.6061
26.030,67.0787
26.040,72.2647
26.050,73.3438
26.060,62.1915
26.070,63.8899
26.080,72.2207
26.090,63.5384
26.100,72.8580
26.110,67.2739
26.120,64.2204
26.130,63.8892
26.140,65.9684
26.150,68.0154
26.160,66.3088
26.170,71.2594
26.180,64.4294
26.190,70.1237
26.200,70.5461
26.210,71.1592
26.220,62.0113
26.230,68.9945
26.240,63.4157
26.250,68.2295
26.260,70.9057
26.270,71.0871
26.280,71.6693
26.290,64.7204
26.300,70.9099
26.310,63.3606
26.320,63.3345
26.330,65.4424
26.340,63.8994
26.350,62.6776
26.360,62.1666
26.370,69.8876
26.380,62.9830
26.390,59.6063
26.400,65.5009
26.410,67.3568
26.420,63.7128
26.430,68.6351
26.440,59.5427
26.450,67.5327
26.460,60.4063
26.470,64.4661
26.480,67.9358
26.490,58.2401
26.500,65.3992
26.510,65.5644
26.520,59.8088
26.530,59.8951
26.540,62.0449
26.550,56.8771
26.560,60.0421
26.570,60.8698
26.580,60.6078
26.590,63.6620
26.600,59.6661
26.610,62.0568
26.620,64.7045
26.630,55.7552
26.640,54.6223
26.650,56.5608
26.660,64.7160
26.670,62.0729
26.680,62.2117
26.690,63.3970
26.700,61.1182
26.710,53.8516
26.720,56.9447
26.730,59.2427
26.740,64.3302
26.750,56.6238
26.760,59.6864
26.770,57.6322
26.780,55.2746
26.790,57.9099
26.800,53.2120
26.810,54.6866
26.820,64.0876
26.830,63.8796
26.840,55.1233
26.850,57.3077
26.860,55.1272
26.870,62.6175
26.880,62.4734
26.890,59.6156
26.900,58.2068
26.910,64.1771
26.920,55.5770
26.930,59.9107
26.940,57.4701
26.950,55.8400
26.960,61.8410
26.970,58.1211
26.980,54.3699
26.990,58.1089
27.000,63.7203
27.010,66.6824
27.020,61.2760
27.030,55.7919
27.040,56.0869
27.050,57.0568
27.060,65.4409
27.070,59.7082
27.080,61.6812
27.090,59.0705
27.100,59.7629
27.110,57.9776
27.120,64.6191
27.130,68.1768
27.140,68.5904
27.150,57.7134
27.160,68.6197
27.170,58.0457
27.180,59.2407
27.190,58.6497
27.200,61.8421
27.210,66.4275
27.220,61.0796
27.230,65.0265
27.240,64.7507
27.250,65.0430
27.260,63.2471
27.270,62.2057
27.280,68.9116
27.290,71.5355
27.300,68.2109
27.310,65.8895
27.320,69.6794
27.330,61.0117
27.340,66.6611
27.350,71.2782
27.360,72.4338
27.370,64.2518
27.380,64.1024
27.390,65.2150
27.400,62.9617
27.410,65.9330
27.420,72.2695
27.430,69.1449
27.440,68.6907
27.450,66.5401
27.460,65.9514
27.470,69.6647
27.480,64.2328
27.490,62.6134
27.500,69.2258
27.510,72.7047
27.520,73.6897
27.530,69.8022
27.540,62.5025
27.550,66.7626
27.560,66.3204
27.570,72.2270
27.580,65.1210
27.590,73.8824
27.600,67.1080
27.610,67.3315
27.620,62.1510
27.630,68.1332
27.640,61.5025
27.650,63.1747
27.660,67.9904
27.670,64.7300
27.680,67.3935
27.690,61.3790
27.700,65.7536
27.710,61.8906
27.720,65.4618
27.730,64.5379
27.740,69.7807
27.750,64.0594
27.760,70.0598
27.770,65.5285
27.780,69.4933
27.790,67.5742
27.800,63.1035
27.810,61.9546
27.820,62.3963
27.830,69.8652
27.840,58.9577
27.850,62.9368
27.860,62.9614
27.870,57.9112
27.880,64.5866
27.890,67.4137
27.900,67.4525
27.910,64.7308
27.920,67.4846
27.930,58.2892
27.940,56.2773
27.950,61.7348
27.960,57.1124
27.970,59.9213
27.980,65.4732
27.990,58.7486
28.000,60.6176
28.010,61.6719
28.020,63.3863
28.030,61.6176
28.040,55.4810
28.050,54.0070
28.060,55.4035
28.070,62.8979
28.080,60.2999
28.090,64.7107
28.100,55.0904
28.110,57.2645
28.120,60.8397
28.130,54.1745
28.140,63.6657
28.150,64.6757
28.160,58.2718
28.170,57.8225
28.180,53.9798
28.190,53.7279
28.200,53.9684
28.210,57.9258
28.220,57.3816
28.230,54.1305
28.240,62.9240
28.250,56.2461
28.260,61.2554
28.270,63.0265
28.280,56.7544
28.290,63.6856
28.300,55.0653
28.310,56.6143
28.320,58.7865
28.330,56.5342
28.340,63.0135
28.350,64.7109
28.360,54.1237
28.370,64.8002
28.380,55.0433
28.390,64.5403
28.400,56.4585
28.410,61.3405
28.420,65.4300
28.430,55.4988
28.440,58.4426
28.450,57.6737
28.460,63.2535
28.470,58.3988
28.480,65.7284
28.490,56.4480
28.500,59.9772
28.510,62.3143
28.520,66.1845
28.530,68.3461
28.540,61.2683
28.550,64.7312
28.560,67.1001
28.570,57.7482
28.580,67.0467
28.590,65.0174
28.600,63.0289
28.610,69.2543
28.620,70.3161
28.630,66.6149
28.640,66.2774
28.650,70.9382
28.660,60.2705
28.670,67.3215
28.680,71.4133
28.690,71.8613
28.700,67.4488
28.710,65.8485
28.720,66.4978
28.730,65.6398
28.740,67.6291
28.750,62.2605
28.760,62.0280
28.770,63.5832
28.780,71.0423
28.790,62.0176
28.800,68.9812
28.810,67.3891
28.820,63.3600
28.830,68.1530
28.840,65.2242
28.850,70.0415
28.860,70.2607
28.870,67.2951
28.880,68.4063
28.890,71.8983
28.900,70.6853
28.910,70.4348
28.920,72.7640
28.930,68.3555
28.940,73.6077
28.950,62.7935
28.960,65.4373
28.970,70.1183
28.980,63.2241
28.990,65.2766
29.000,65.8252
29.010,67.6585
29.020,72.9292
29.030,63.7088
29.040,64.1698
29.050,73.3351
29.060,67.6475
29.070,65.5964
29.080,70.4071
29.090,72.3163
29.100,71.1742
29.110,67.8429
29.120,68.2000
29.130,60.8672
29.140,69.2321
29.150,61.0646
29.160,61.6508
29.170,67.0320
29.180,71.4379
29.190,67.4196
29.200,60.4250
29.210,66.3637
29.220,69.2866
29.230,65.4803
29.240,62.3841
29.250,68.7816
29.260,66.1801
29.270,65.8462
29.280,59.1103
29.290,60.0425
29.300,64.9247
29.310,60.2641
29.320,66.7992
29.330,66.1715
29.340,59.7243
29.350,66.8601
29.360,67.8183
29.370,67.8931
29.380,66.6763
29.390,66.2970
29.400,64.7819
29.410,57.0553
29.420,64.5843
29.430,56.1333
29.440,63.2367
29.450,54.7570
29.460,64.3793
29.470,54.1374
29.480,55.4760
29.490,64.0517
29.500,53.8847
29.510,64.1079
29.520,64.9005
29.530,59.6869
29.540,56.7689
29.550,53.4575
29.560,56.0944
29.570,64.8876
29.580,56.6537
29.590,56.1903
29.600,54.1724
29.610,64.6445
29.620,57.9840
29.630,55.1683
29.640,55.3562
29.650,55.1928
29.660,61.1225
29.670,55.8423
29.680,57.0248
29.690,55.2178
29.700,58.9417
29.710,61.5851
29.720,56.5584
29.730,64.2003
29.740,63.3866
29.750,53.9606
29.760,59.7207
29.770,58.9441
29.780,61.0283
29.790,61.1862
29.800,54.8409
29.810,55.6048
29.820,56.5825
29.830,62.8216
29.840,55.1094
29.850,64.8596
29.860,64.5412
29.870,57.9471
29.880,55.6349
29.890,66.5878
29.900,63.4571
29.910,57.7820
29.920,59.5748
29.930,56.7339
29.940,61.7045
29.950,58.2016
29.960,62.7790
29.970,66.2340
29.980,57.4099
29.990,66.2557
30.000,58.7490
30.010,58.7778
30.020,63.9347
30.030,69.3768
30.040,62.2190
30.050,66.2553
30.060,73.1648
30.070,69.9325
30.080,77.0021
30.090,72.6543
30.100,76.6232
30.110,79.0672
30.120,69.7482
30.130,72.4702
30.140,71.2802
30.150,79.5835
30.160,81.1577
30.170,79.1486
30.180,85.1956
30.190,83.9971
30.200,79.1679
30.210,87.4873
30.220,83.9860
30.230,90.7875
30.240,88.5303
30.250,84.9836
30.260,92.4644
30.270,88.9898
30.280,93.6426
30.290,86.5206
30.300,86.8724
30.310,97.1630
30.320,99.5452
30.330,96.8780
30.340,101.5886
30.350,91.6691
30.360,99.6666
30.370,99.8052
30.380,96.5577
30.390,105.6209
30.400,107.9363
30.410,98.4559
30.420,103.8605
30.430,108.3516
30.440,102.8231
30.450,102.0709
30.460,106.9375
30.470,106.6580
30.480,105.0373
30.490,112.5314
30.500,113.5399
30.510,107.2426
30.520,117.4398
30.530,108.8082
30.540,110.1496
30.550,121.5512
30.560,115.5351
30.570,112.4387
30.580,116.2677
30.590,115.6919
30.600,121.8439
30.610,116.1806
30.620,122.9685
30.630,120.9141
30.640,123.1267
30.650,131.5176
30.660,130.6084
30.670,128.5317
30.680,128.2150
30.690,131.6221
30.700,131.6701
30.710,137.1151
30.720,138.5590
30.730,139.0388
30.740,131.9924
30.750,132.9788
30.760,136.0845
30.770,140.7515
30.780,134.9292
30.790,144.4132
30.800,139.6411
30.810,137.8484
30.820,143.2463
30.830,145.9151
30.840,149.6296
30.850,144.5752
30.860,146.8913
30.870,145.2709
30.880,152.1636
30.890,146.8476
30.900,151.9740
30.910,148.7346
30.920,154.8096
30.930,149.4601
30.940,157.5612
30.950,154.3772
30.960,161.0942
30.970,156.3938
30.980,161.1489
30.990,159.9440
31.000,157.8954
31.010,160.2482
31.020,160.3013
31.030,154.3582
31.040,162.4500
31.050,154.7559
31.060,155.0421
31.070,165.3437
31.080,160.5229
31.090,164.4521
31.100,153.8437
31.110,163.5736
31.120,161.9462
31.130,159.8131
31.140,161.3505
31.150,164.5788
31.160,155.5866
31.170,156.9055
31.180,158.8352
31.190,163.6191
31.200,162.0475
31.210,164.0658
31.220,157.1165
31.230,156.4075
31.240,157.0881
31.250,162.3063
31.260,155.4881
31.270,156.2986
31.280,158.7843
31.290,164.2836
31.300,159.3085
31.310,156.9151
31.320,165.1360
31.330,162.1364
31.340,162.0599
31.350,161.1750
31.360,163.3586
31.370,162.7030
31.380,162.5671
31.390,156.2444
31.400,156.3235
31.410,163.9447
31.420,163.5198
31.430,165.6773
31.440,156.6496
31.450,157.9911
31.460,159.7014
31.470,159.0533
31.480,159.0572
31.490,154.1797
31.500,157.9816
31.510,165.6317
31.520,163.1774
31.530,158.4616
31.540,160.1947
31.550,159.3301
31.560,158.8047
31.570,156.1916
31.580,161.3404
31.590,156.8443
31.600,156.0542
31.610,154.9222
31.620,164.5113
31.630,159.6935
31.640,163.3716
31.650,164.8869
31.660,160.9723
31.670,165.6389
31.680,165.0711
31.690,161.7641
31.700,161.9168
31.710,154.3013
31.720,156.8933
31.730,165.4012
31.740,156.3044
31.750,165.2792
31.760,163.3066
31.770,156.9990
31.780,156.3094
31.790,164.4677
31.800,154.6862
31.810,161.4711
31.820,161.0168
31.830,159.2446
31.840,165.2125
31.850,161.5627
31.860,162.5089
31.870,154.6324
31.880,163.2591
31.890,162.0714
31.900,157.0340
31.910,162.4786
31.920,164.4677
31.930,154.4271
31.940,158.1328
31.950,159.4762
31.960,158.6311
31.970,162.4141
31.980,157.4181
31.990,157.6444
32.000,64.2213
32.010,67.8624
32.020,61.4081
32.030,64.0091
32.040,61.5753
32.050,66.6728
32.060,67.3064
32.070,70.4972
32.080,65.5033
32.090,62.0785
32.100,60.1874
32.110,70.5418
32.120,60.5656
32.130,69.7368
32.140,62.1477
32.150,60.8207
32.160,67.1117
32.170,59.3689
32.180,59.4482
32.190,58.0655
32.200,57.0914
32.210,67.8926
32.220,58.9375
32.230,67.7411
32.240,57.8394
32.250,57.8118
32.260,60.3437
32.270,65.1479
32.280,63.0256
32.290,58.2313
32.300,59.0507
32.310,56.9369
32.320,55.0869
32.330,62.1424
32.340,61.9664
32.350,64.5336
32.360,65.3641
32.370,59.1646
32.380,56.7337
32.390,57.9096
32.400,59.0780
32.410,60.8788
32.420,57.9676
32.430,57.0952
32.440,60.1774
32.450,53.5617
32.460,54.6430
32.470,64.8925
32.480,62.8880
32.490,58.5389
32.500,55.4638
32.510,62.7928
32.520,63.3027
32.530,55.6670
32.540,58.6079
32.550,55.0118
32.560,61.5078
32.570,55.2870
32.580,64.4201
32.590,54.8446
32.600,55.1361
32.610,58.1741
32.620,58.5724
32.630,59.2105
32.640,59.5922
32.650,64.7201
32.660,65.7556
32.670,65.9442
32.680,59.1189
32.690,62.5245
32.700,56.4912
32.710,58.6972
32.720,62.6287
32.730,61.4956
32.740,57.2410
32.750,61.1807
32.760,62.5783
32.770,57.3689
32.780,65.2229
32.790,66.1027
32.800,63.5594
32.810,61.9526
32.820,63.4807
32.830,65.5682
32.840,64.0375
32.850,62.9158
32.860,63.6717
32.870,66.4175
32.880,60.8901
32.890,60.9997
32.900,62.8093
32.910,61.5526
32.920,60.1370
32.930,68.3475
32.940,65.9513
32.950,62.2814
32.960,64.5147
32.970,64.4742
32.980,64.6857
32.990,71.2161
33.000,72.4681
33.010,61.5832
33.020,62.1782
33.030,63.4489
33.040,71.9253
33.050,66.7077
33.060,71.3699
33.070,66.0453
33.080,65.6376
33.090,69.2010
33.100,66.3375
33.110,65.6803
33.120,73.8053
33.130,71.7379
33.140,68.8923
33.150,69.5687
33.160,66.9773
33.170,74.4477
33.180,71.4727
33.190,66.6379
33.200,64.4363
33.210,74.5546
33.220,65.6262
33.230,66.5564
33.240,67.4021
33.250,72.1047
33.260,65.4095
33.270,74.2814
33.280,74.0174
33.290,68.6200
33.300,67.4114
33.310,66.0959
33.320,63.3566
33.330,63.0909
33.340,67.8678
33.350,64.0887
33.360,70.7898
33.370,69.0108
33.380,63.7085
33.390,66.1907
33.400,61.4536
33.410,66.4664
33.420,72.6721
33.430,68.1888
33.440,71.5726
33.450,60.7487
33.460,68.9291
33.470,68.9814
33.480,60.2928
33.490,69.2661
33.500,60.3700
33.510,64.4276
33.520,63.2488
33.530,65.2033
33.540,61.0098
33.550,62.0680
33.560,63.9550
33.570,66.3831
33.580,66.0440
33.590,59.4255
33.600,65.1011
33.610,58.7087
33.620,64.4411
33.630,63.4080
33.640,57.7265
33.650,61.8100
33.660,67.6772
33.670,63.4069
33.680,61.4176
33.690,55.9335
33.700,56.9565
33.710,65.7385
33.720,56.3122
33.730,65.8365
33.740,63.1769
33.750,60.2571
33.760,56.9564
33.770,58.6064
33.780,54.4096
33.790,64.8556
33.800,57.9263
33.810,59.0364
33.820,62.6837
33.830,64.2563
33.840,64.2418
33.850,59.3588
33.860,64.6895
33.870,58.5689
33.880,57.1953
33.890,63.6133
33.900,63.4296
33.910,58.8864
33.920,59.6111
33.930,57.1316
33.940,62.6699
33.950,55.1653
33.960,61.6443
33.970,58.2734
33.980,63.2384
33.990,62.1919
34.000,62.3908
34.010,65.1034
34.020,62.4454
34.030,60.6459
34.040,62.3578
34.050,54.7711
34.060,65.1404
34.070,61.9289
34.080,61.1229
34.090,64.6030
34.100,61.0849
34.110,61.7837
34.120,60.5723
34.130,55.4154
34.140,57.8858
34.150,66.1206
34.160,64.0697
34.170,64.6195
34.180,67.1867
34.190,57.8083
34.200,64.6574
34.210,65.3292
34.220,58.1256
34.230,63.8995
34.240,63.3403
34.250,59.6830
34.260,61.9058
34.270,63.0424
34.280,58.4980
34.290,66.3018
34.300,65.9213
34.310,59.7210
34.320,70.0985
34.330,63.3886
34.340,69.9278
34.350,64.7918
34.360,60.0146
34.370,60.7451
34.380,61.8164
34.390,69.4872
34.400,63.7048
34.410,64.4934
34.420,67.1907
34.430,68.5758
34.440,70.5740
34.450,65.5760
34.460,63.0454
34.470,62.0955
34.480,73.3755
34.490,71.5216
34.500,64.3657
34.510,67.8795
34.520,63.4083
34.530,69.1871
34.540,69.6051
34.550,71.1435
34.560,72.5254
34.570,69.3864
34.580,74.3059
34.590,72.1390
34.600,72.5485
34.610,71.4558
34.620,68.7644
34.630,70.7225
34.640,72.5389
34.650,71.4419
34.660,68.6384
34.670,65.4526
34.680,71.4639
34.690,72.9135
34.700,69.3201
34.710,66.2047
34.720,69.9075
34.730,67.4677
34.740,73.2450
34.750,66.1564
34.760,67.9687
34.770,68.2394
34.780,64.3521
34.790,67.0844
34.800,71.1616
34.810,72.0377
34.820,66.6927
34.830,62.1062
34.840,70.1879
34.850,69.4087
34.860,70.1957
34.870,67.7944
34.880,70.9892
34.890,66.5344
34.900,70.3048
34.910,64.6006
34.920,67.2281
34.930,64.0045
34.940,60.2773
34.950,65.8106
34.960,68.0289
34.970,62.5060
34.980,58.9268
34.990,59.4136
35.000,67.3708
35.010,68.0365
35.020,65.4157
35.030,66.9464
35.040,62.0680
35.050,68.4652
35.060,61.0917
35.070,64.1828
35.080,62.9452
35.090,61.4003
35.100,64.4125
35.110,66.6754
35.120,62.3575
35.130,59.7360
35.140,58.6530
35.150,64.8831
35.160,57.1919
35.170,57.6342
35.180,63.5045
35.190,64.1609
35.200,57.5210
35.210,55.5434
35.220,58.0273
35.230,58.8142
35.240,58.7955
35.250,55.7795
35.260,63.4962
35.270,57.5653
35.280,54.8532
35.290,63.4730
35.300,64.8814
35.310,60.5046
35.320,57.4514
35.330,54.2320
35.340,57.1248
35.350,54.5765
35.360,61.7312
35.370,61.7886
35.380,53.8357
35.390,54.6997
35.400,63.1128
35.410,62.5785
35.420,54.8142
35.430,62.7832
35.440,62.4180
35.450,64.5427
35.460,65.9690
35.470,60.7170
35.480,62.0552
35.490,60.5626
35.500,65.8820
35.510,57.1813
35.520,62.9543
35.530,60.5185
35.540,59.1041
35.550,63.8639
35.560,66.2093
35.570,60.2822
35.580,58.8703
35.590,58.8322
35.600,61.2103
35.610,65.9066
35.620,64.0170
35.630,59.2348
35.640,67.8076
35.650,68.5288
35.660,67.6805
35.670,60.2482
35.680,63.6362
35.690,63.0431
35.700,64.5249
35.710,68.5213
35.720,61.8130
35.730,69.9096
35.740,60.3741
35.750,60.3642
35.760,59.9068
35.770,70.6723
35.780,61.0795
35.790,71.1482
35.800,70.2786
35.810,66.4983
35.820,65.1222
35.830,67.2041
35.840,70.1885
35.850,68.5476
35.860,71.9378
35.870,65.1190
35.880,66.3126
35.890,64.2052
35.900,61.9483
35.910,64.0680
35.920,70.4152
35.930,69.0084
35.940,69.4267
35.950,70.5850
35.960,72.6649
35.970,74.3475
35.980,71.8254
35.990,67.6586
36.000,70.7455
36.010,67.3773
36.020,69.0959
36.030,64.3234
36.040,66.3954
36.050,71.6668
36.060,64.7738
36.070,64.8376
36.080,67.8298
36.090,71.7289
36.100,65.1989
36.110,65.2608
36.120,71.2159
36.130,65.8257
36.140,65.2662
36.150,70.5491
36.160,63.8146
36.170,63.6177
36.180,65.5226
36.190,65.1654
36.200,63.9334
36.210,65.3513
36.220,72.5591
36.230,71.6017
36.240,72.9809
36.250,68.9873
36.260,70.7500
36.270,67.9988
36.280,72.4593
36.290,64.1825
36.300,66.6295
36.310,61.0417
36.320,61.4296
36.330,62.1807
36.340,60.7122
36.350,68.5669
36.360,67.7009
36.370,70.5977
36.380,67.5113
36.390,67.1166
36.400,70.2317
36.410,59.2362
36.420,69.7869
36.430,58.8733
36.440,67.7456
36.450,59.3314
36.460,69.7988
36.470,67.7342
36.480,59.2443
36.490,68.9277
36.500,66.5487
36.510,64.3443
36.520,67.2495
36.530,68.3573
36.540,56.8394
36.550,62.4632
36.560,56.0677
36.570,58.4358
36.580,61.5142
36.590,60.5178
36.600,62.6108
36.610,56.3673
36.620,55.3053
36.630,63.7527
36.640,60.7032
36.650,63.5895
36.660,64.1351
36.670,58.9706
36.680,55.6280
36.690,57.3019
36.700,57.3022
36.710,56.8816
36.720,63.8616
36.730,58.8525
36.740,56.7144
36.750,54.4360
36.760,54.1253
36.770,54.2685
36.780,59.5445
36.790,63.4952
36.800,64.7981
36.810,62.7599
36.820,57.2905
36.830,64.7368
36.840,61.9691
36.850,60.2749
36.860,54.9100
36.870,59.3612
36.880,56.5625
36.890,55.3097
36.900,65.6567
36.910,61.1034
36.920,59.3940
36.930,64.4242
36.940,56.5633
36.950,59.6076
36.960,66.3929
36.970,64.3586
36.980,63.5909
36.990,57.9136
37.000,56.2174
37.010,66.8885
37.020,60.0519
37.030,68.1757
37.040,62.5306
37.050,62.8559
37.060,63.1894
37.070,60.6964
37.080,59.5275
37.090,66.5445
37.100,62.4841
37.110,63.8413
37.120,68.4193
37.130,65.9539
37.140,63.6519
37.150,61.3002
37.160,66.1539
37.170,68.3627
37.180,65.4926
37.190,70.7266
37.200,71.5295
37.210,61.4889
37.220,68.6814
37.230,65.6566
37.240,65.1273
37.250,61.7931
37.260,68.5700
37.270,66.2522
37.280,62.2079
37.290,72.9733
37.300,69.8999
37.310,71.2773
37.320,70.8248
37.330,73.7270
37.340,69.9194
37.350,62.8675
37.360,64.5367
37.370,70.1742
37.380,64.2601
37.390,67.5399
37.400,68.6133
37.410,63.4268
37.420,63.2959
37.430,73.0323
37.440,71.1561
37.450,63.9531
37.460,70.9967
37.470,72.9677
37.480,64.0021
37.490,65.9160
37.500,64.5101
37.510,74.0701
37.520,69.8251
37.530,68.9629
37.540,73.7075
37.550,66.6050
37.560,71.2838
37.570,67.0145
37.580,68.6108
37.590,67.6304
37.600,73.4010
37.610,67.3225
37.620,64.6528
37.630,69.6244
37.640,74.2325
37.650,63.8265
37.660,64.8032
37.670,72.5535
37.680,63.4561
37.690,69.2735
37.700,63.3939
37.710,71.1974
37.720,71.1939
37.730,63.0645
37.740,61.7561
37.750,71.0794
37.760,65.7153
37.770,69.0717
37.780,62.1066
37.790,66.1234
37.800,59.8532
37.810,67.2477
37.820,61.5397
37.830,62.9325
37.840,70.5053
37.850,61.9412
37.860,62.3459
37.870,70.3027
37.880,60.9952
37.890,64.1360
37.900,67.8609
37.910,60.2167
37.920,63.8741
37.930,60.9145
37.940,60.8977
37.950,65.6716
37.960,58.4477
37.970,67.3139
37.980,57.4321
37.990,60.0968
38.000,58.5638
38.010,61.1706
38.020,67.2722
38.030,61.0183
38.040,61.2697
38.050,56.0516
38.060,65.6735
38.070,61.4658
38.080,59.5304
38.090,64.2300
38.100,62.3209
38.110,62.8834
38.120,60.4177
38.130,65.8936
38.140,55.8080
38.150,54.4007
38.160,55.6551
38.170,63.0111
38.180,54.7631
38.190,55.1261
38.200,63.9504
38.210,57.2981
38.220,55.2752
38.230,59.5159
38.240,54.2403
38.250,62.4306
38.260,55.3486
38.270,64.6302
38.280,65.1604
38.290,62.9804
38.300,58.0902
38.310,57.2435
38.320,64.1195
38.330,66.1121
38.340,63.7059
38.350,57.7614
38.360,64.7705
38.370,65.2456
38.380,62.1546
38.390,65.0514
38.400,57.7756
38.410,66.5490
38.420,66.5729
38.430,56.3787
38.440,60.3522
38.450,57.1554
38.460,66.7933
38.470,63.7952
38.480,66.7887
38.490,57.6683
38.500,63.0498
38.510,57.7577
38.520,68.6853
38.530,66.8124
38.540,60.3242
38.550,59.4238
38.560,64.0302
38.570,60.8579
38.580,62.6268
38.590,64.3225
38.600,70.5378
38.610,68.6493
38.620,63.1377
38.630,70.9484
38.640,67.5409
38.650,60.9979
38.660,68.9285
38.670,69.4486
38.680,61.0286
38.690,67.4386
38.700,61.8709
38.710,72.6495
38.720,73.6097
38.730,64.2018
38.740,65.2484
38.750,68.5752
38.760,70.6352
38.770,73.7263
38.780,69.1704
38.790,65.5266
38.800,64.9606
38.810,64.2780
38.820,73.7178
38.830,67.1784
38.840,69.4554
38.850,74.9207
38.860,74.4974
38.870,71.1223
38.880,68.6726
38.890,71.3546
38.900,70.1307
38.910,71.0571
38.920,71.7792
38.930,68.1830
38.940,63.9188
38.950,69.8558
38.960,63.9947
38.970,71.6070
38.980,65.7868
38.990,67.8251
39.000,67.6760
39.010,74.4831
39.020,71.6851
39.030,66.8845
39.040,65.8088
39.050,72.7594
39.060,72.3856
39.070,65.7227
39.080,73.7308
39.090,72.4317
39.100,66.3585
39.110,68.4036
39.120,67.1108
39.130,68.4017
39.140,71.1183
39.150,67.5313
39.160,69.6164
39.170,62.4021
39.180,62.9400
39.190,66.1109
39.200,69.0815
39.210,61.0884
39.220,67.6636
39.230,65.2890
39.240,67.9482
39.250,66.8553
39.260,68.2980
39.270,59.3366
39.280,66.9071
39.290,59.8581
39.300,59.2673
39.310,65.3436
39.320,60.7317
39.330,67.2648
39.340,66.8079
39.350,64.0190
39.360,57.9273
39.370,59.9918
39.380,63.2563
39.390,57.1126
39.400,67.3057
39.410,63.3679
39.420,67.9557
39.430,57.8508
39.440,62.3150
39.450,66.9517
39.460,57.7545
39.470,55.3610
39.480,64.4446
39.490,55.0797
39.500,62.9955
39.510,63.9052
39.520,62.5634
39.530,62.3730
39.540,61.5105
39.550,65.6174
39.560,64.0402
39.570,65.1536
39.580,54.3183
39.590,62.1152
39.600,60.1298
39.610,59.5467
39.620,60.8130
39.630,63.4043
39.640,55.5003
39.650,54.3650
39.660,62.6750
39.670,60.9016
39.680,61.1666
39.690,63.1308
39.700,63.2353
39.710,61.1534
39.720,60.4152
39.730,61.4560
39.740,55.5491
39.750,61.5306
39.760,66.6365
39.770,55.7451
39.780,55.9438
39.790,57.0585
39.800,64.7495
39.810,64.0604
39.820,60.2740
39.830,61.2130
39.840,60.5312
39.850,64.1283
39.860,58.9786
39.870,58.9047
39.880,68.4252
39.890,64.5219
39.900,60.4084
39.910,60.3356
39.920,65.6392
39.930,59.0959
39.940,61.8112
39.950,69.5603
39.960,64.4885
39.970,61.9108
39.980,62.0429
39.990,65.4667
40.000,67.3921
40.010,69.9782
40.020,62.2109
40.030,69.4887
40.040,70.1429
40.050,71.9295
40.060,71.1970
40.070,71.4629
40.080,68.4777
40.090,64.8256
40.100,66.0218
40.110,72.7028
40.120,67.9555
40.130,64.7768
40.140,71.3862
40.150,68.0583
40.160,68.5042
40.170,64.3195
40.180,68.4426
40.190,68.0174
40.200,69.7926
40.210,66.1079
40.220,63.1383
40.230,63.0070
40.240,72.1790
40.250,65.4651
40.260,69.1076
40.270,65.1587
40.280,66.9429
40.290,64.2032
40.300,73.0601
40.310,75.4101
40.320,70.4764
40.330,72.5654
40.340,63.7129
40.350,69.5548
40.360,73.9590
40.370,70.7311
40.380,72.9562
40.390,69.8081
40.400,67.6289
40.410,67.3349
40.420,70.3984
40.430,63.9760
40.440,67.8065
40.450,68.4372
40.460,72.5718
40.470,63.6744
40.480,65.6760
40.490,71.6301
40.500,66.0036
40.510,68.1584
40.520,65.5211
40.530,67.2527
40.540,68.9836
40.550,69.4908
40.560,64.1574
40.570,72.9029
40.580,62.5347
40.590,68.2527
40.600,72.1793
40.610,62.1132
40.620,71.7572
40.630,68.6851
40.640,64.2014
40.650,61.3230
40.660,61.3207
40.670,65.5209
40.680,69.7031
40.690,70.6235
40.700,61.0774
40.710,62.8097
40.720,60.2724
40.730,66.0008
40.740,65.7354
40.750,66.1718
40.760,65.4683
40.770,65.2073
40.780,62.3827
40.790,67.9576
40.800,63.5952
40.810,58.7008
40.820,57.2641
40.830,67.9066
40.840,59.0144
40.850,66.2366
40.860,66.2956
40.870,60.7933
40.880,63.8464
40.890,62.6074
40.900,59.1464
40.910,58.7969
40.920,61.4602
40.930,57.7466
40.940,61.5961
40.950,64.8839
40.960,55.1613
40.970,56.8474
40.980,56.8180
40.990,55.1026
41.000,55.6216
41.010,57.6143
41.020,65.0414
41.030,64.2403
41.040,63.6868
41.050,58.1430
41.060,57.7500
41.070,60.3027
41.080,55.3609
41.090,63.5485
41.100,63.6326
41.110,55.6273
41.120,64.7241
41.130,65.3902
41.140,59.6795
41.150,63.2692
41.160,62.5468
41.170,59.2162
41.180,59.7264
41.190,63.9224
41.200,58.9991
41.210,64.6840
41.220,57.3375
41.230,55.7132
41.240,58.6591
41.250,64.1404
41.260,66.8036
41.270,63.6087
41.280,61.6409
41.290,56.4199
41.300,64.2852
41.310,67.4161
41.320,59.5146
41.330,62.6192
41.340,57.6249
41.350,68.8043
41.360,63.6587
41.370,65.8326
41.380,68.8480
41.390,60.5370
41.400,62.6546
41.410,70.4196
41.420,66.2506
41.430,61.7668
41.440,70.7932
41.450,63.0098
41.460,69.3209
41.470,62.6213
41.480,70.6401
41.490,66.2089
41.500,68.9091
41.510,62.8925
41.520,72.4591
41.530,69.9740
41.540,63.4867
41.550,61.5068
41.560,72.7685
41.570,73.2687
41.580,73.0382
41.590,68.0403
41.600,73.8671
41.610,63.5377
41.620,67.4716
41.630,63.6968
41.640,68.1215
41.650,72.2758
41.660,64.0333
41.670,66.4219
41.680,65.9274
41.690,66.4556
41.700,65.3093
41.710,64.4800
41.720,73.2786
41.730,64.4544
41.740,66.9448
41.750,68.9772
41.760,73.3115
41.770,74.1210
41.780,68.0322
41.790,65.3768
41.800,74.2742
41.810,67.9491
41.820,65.8870
41.830,67.3953
41.840,64.6019
41.850,74.4880
41.860,67.3111
41.870,70.9328
41.880,65.2859
41.890,69.8337
41.900,73.5431
41.910,71.6421
41.920,70.1116
41.930,68.5649
41.940,74.2018
41.950,64.5763
41.960,62.7528
41.970,72.1893
41.980,65.2650
41.990,67.2649
42.000,72.0891
42.010,72.1557
42.020,65.8659
42.030,68.8975
42.040,70.6736
42.050,66.1670
42.060,70.6567
42.070,63.7316
42.080,72.0910
42.090,63.2897
42.100,60.3847
42.110,64.8126
42.120,67.7143
42.130,65.8855
42.140,70.1590
42.150,61.7295
42.160,61.2344
42.170,70.1998
42.180,60.0660
42.190,63.5973
42.200,69.8474
42.210,59.3963
42.220,58.4749
42.230,60.2318
42.240,65.0648
42.250,57.6536
42.260,67.5796
42.270,67.5647
42.280,58.6639
42.290,67.0203
42.300,64.9685
42.310,61.3593
42.320,65.2865
42.330,59.2767
42.340,60.0909
42.350,61.1238
42.360,57.9294
42.370,65.2455
42.380,66.0664
42.390,64.4151
42.400,57.8295
42.410,64.9099
42.420,57.2934
42.430,64.2388
42.440,62.0672
42.450,56.7552
42.460,55.9618
42.470,56.4983
42.480,59.3607
42.490,64.1291
42.500,56.8623
42.510,60.7041
42.520,56.9689
42.530,66.3724
42.540,57.9417
42.550,55.9045
42.560,60.9621
42.570,59.6647
42.580,63.4582
42.590,55.3627
42.600,65.4761
42.610,64.1704
42.620,60.4362
42.630,58.9695
42.640,55.9236
42.650,59.8484
42.660,56.0381
42.670,58.8300
42.680,65.2498
42.690,62.0021
42.700,57.5356
42.710,67.9175
42.720,62.7685
42.730,64.8049
42.740,59.2260
42.750,64.5944
42.760,60.8547
42.770,69.1040
42.780,57.5982
42.790,60.6244
42.800,65.7472
42.810,64.8613
42.820,67.2312
42.830,63.5241
42.840,68.4192
42.850,62.9306
42.860,70.1876
42.870,61.3675
42.880,63.7505
42.890,67.3556
42.900,66.5062
42.910,62.8636
42.920,61.4801
42.930,69.6757
42.940,64.5690
42.950,69.0739
42.960,66.8207
42.970,72.7254
42.980,68.6045
42.990,73.4983
43.000,71.3235
43.010,73.1488
43.020,63.5550
43.030,71.8805
43.040,69.9187
43.050,68.3873
43.060,71.7124
43.070,71.3410
43.080,72.4648
43.090,64.4487
43.100,65.5229
43.110,64.8206
43.120,72.5365
43.130,66.1509
43.140,69.7898
43.150,71.9062
43.160,69.1091
43.170,73.5719
43.180,70.9372
43.190,70.0543
43.200,67.5189
43.210,75.7405
43.220,67.8827
43.230,66.0714
43.240,65.0545
43.250,70.0731
43.260,70.4985
43.270,65.2220
43.280,72.6140
43.290,64.1687
43.300,68.7859
43.310,72.3152
43.320,69.5168
43.330,66.5061
43.340,68.9512
43.350,67.9092
43.360,68.6617
43.370,73.3321
43.380,73.2367
43.390,73.0244
43.400,70.6199
43.410,65.3975
43.420,68.9283
43.430,64.3294
43.440,69.2535
43.450,65.9558
43.460,61.8271
43.470,62.7975
43.480,69.9561
43.490,66.4659
43.500,67.9433
43.510,66.6301
43.520,68.1697
43.530,65.4220
43.540,70.9601
43.550,60.2999
43.560,66.5204
43.570,64.6197
43.580,59.6997
43.590,59.6304
43.600,66.4902
43.610,70.2602
43.620,61.7246
43.630,64.2161
43.640,64.8108
43.650,65.8279
43.660,58.0969
43.670,66.8831
43.680,65.6474
43.690,67.2007
43.700,64.7990
43.710,60.0402
43.720,58.2703
43.730,58.0546
43.740,57.9182
43.750,63.1626
43.760,62.1486
43.770,65.7876
43.780,56.8854
43.790,66.2914
43.800,55.7944
43.810,56.9366
43.820,64.8394
43.830,59.1779
43.840,55.8323
43.850,56.0100
43.860,59.0769
43.870,64.6254
43.880,55.6336
43.890,54.9331
43.900,58.5577
43.910,62.2686
43.920,60.1441
43.930,64.1397
43.940,58.7959
43.950,56.7964
43.960,55.6425
43.970,66.1021
43.980,55.3671
43.990,59.9857
44.000,59.1923
44.010,55.3932
44.020,60.5742
44.030,57.1796
44.040,59.4664
44.050,67.1715
44.060,57.5382
44.070,58.0078
44.080,57.1166
44.090,56.0207
44.100,66.1941
44.110,56.2915
44.120,58.8980
44.130,67.8589
44.140,57.8040
44.150,63.9642
44.160,68.5336
44.170,67.5635
44.180,65.4560
44.190,67.9252
44.200,66.5043
44.210,62.4105
44.220,60.2960
44.230,61.4906
44.240,63.2236
44.250,60.4933
44.260,70.6013
44.270,60.5639
44.280,63.8828
44.290,67.2625
44.300,62.1483
44.310,71.3615
44.320,63.8214
44.330,71.5531
44.340,71.0982
44.350,71.0931
44.360,70.2298
44.370,68.7690
44.380,72.0285
44.390,66.6158
44.400,72.7924
44.410,71.9455
44.420,63.7831
44.430,67.1905
44.440,65.0162
44.450,69.5745
44.460,65.7554
44.470,71.7475
44.480,73.3537
44.490,74.6939
44.500,73.8356
44.510,70.6481
44.520,67.1596
44.530,67.4327
44.540,75.0455
44.550,66.1385
44.560,74.8893
44.570,69.7200
44.580,73.3408
44.590,69.9421
44.600,69.7016
44.610,68.9811
44.620,68.8740
44.630,67.5078
44.640,75.4603
44.650,74.8527
44.660,71.6108
44.670,74.5007
44.680,70.1575
44.690,74.1363
44.700,72.1167
44.710,72.8064
44.720,66.0935
44.730,65.6232
44.740,74.6898
44.750,70.9795
44.760,68.3882
44.770,72.2411
44.780,68.6083
44.790,69.5810
44.800,72.3884
44.810,71.9163
44.820,67.0641
44.830,63.9013
44.840,73.1832
44.850,65.1614
44.860,65.7747
44.870,66.2990
44.880,69.3410
44.890,67.8677
44.900,68.7469
44.910,62.4977
44.920,68.8658
44.930,69.4444
44.940,62.8367
44.950,70.4961
44.960,63.0163
44.970,62.5659
44.980,69.7836
44.990,59.7720
45.000,66.3036
45.010,66.5523
45.020,62.9536
45.030,66.6561
45.040,73.1299
45.050,75.4669
45.060,67.2188
45.070,67.1474
45.080,68.5260
45.090,72.7121
45.100,76.9746
45.110,82.2067
45.120,74.3502
45.130,83.1618
45.140,79.3525
45.150,83.4604
45.160,75.6118
45.170,84.7524
45.180,82.1985
45.190,84.4015
45.200,83.2183
45.210,87.7067
45.220,84.3592
45.230,91.7598
45.240,84.4757
45.250,85.6114
45.260,92.6354
45.270,96.1730
45.280,96.3022
45.290,97.2753
45.300,89.0100
45.310,101.3915
45.320,100.8008
45.330,103.6864
45.340,96.0416
45.350,95.9338
45.360,98.3453
45.370,96.4799
45.380,97.1773
45.390,102.2632
45.400,110.0264
45.410,104.2807
45.420,108.2036
45.430,106.3502
45.440,111.6434
45.450,105.3036
45.460,116.3871
45.470,108.8362
45.480,109.6037
45.490,111.0708
45.500,118.6012
45.510,118.0153
45.520,117.8100
45.530,118.3937
45.540,120.8524
45.550,124.3271
45.560,125.9354
45.570,120.6533
45.580,126.7514
45.590,127.2970
45.600,129.5686
45.610,119.9228
45.620,131.2761
45.630,130.7442
45.640,132.3323
45.650,133.8711
45.660,130.2116
45.670,135.7672
45.680,132.5733
45.690,131.3407
45.700,134.8598
45.710,131.8560
45.720,137.7195
45.730,131.5948
45.740,141.6575
45.750,134.3602
45.760,136.8842
45.770,140.7976
45.780,148.0882
45.790,140.1835
45.800,140.1860
45.810,148.1375
45.820,146.3487
45.830,152.1023
45.840,153.7663
45.850,147.5265
45.860,150.6680
45.870,152.9003
45.880,155.6729
45.890,153.2118
45.900,158.5514
45.910,155.2565
45.920,156.3033
45.930,162.3361
45.940,157.6588
45.950,155.4054
45.960,163.3250
45.970,158.5565
45.980,166.4417
45.990,165.9122
46.000,165.9979
46.010,168.7857
46.020,162.2071
46.030,162.9901
46.040,159.9645
46.050,168.7414
46.060,166.4607
46.070,158.1380
46.080,169.2240
46.090,165.2642
46.100,166.5506
46.110,162.0177
46.120,165.4147
46.130,162.4546
46.140,160.8367
46.150,163.3433
46.160,160.3867
46.170,168.6101
46.180,160.0211
46.190,159.5780
46.200,169.3004
46.210,169.8188
46.220,164.2838
46.230,169.3793
46.240,160.0635
46.250,163.4060
46.260,167.8468
46.270,168.3211
46.280,165.5308
46.290,163.3324
46.300,161.2576
46.310,169.8518
46.320,164.7419
46.330,167.7090
46.340,161.2578
46.350,167.8803
46.360,166.0064
46.370,165.2911
46.380,158.8378
46.390,165.6250
46.400,163.5934
46.410,168.6802
46.420,162.6992
46.430,167.4102
46.440,169.4538
46.450,162.5948
46.460,165.0510
46.470,161.5879
46.480,167.2750
46.490,159.4614
46.500,161.7258
46.510,165.7599
46.520,165.9891
46.530,165.8520
46.540,164.0055
46.550,164.6102
46.560,165.8886
46.570,160.9774
46.580,163.4991
46.590,159.6709
46.600,169.4031
46.610,165.7316
46.620,167.5295
46.630,160.8497
46.640,168.2827
46.650,158.1944
46.660,170.0807
46.670,159.6546
46.680,164.8331
46.690,169.6697
46.700,163.0432
46.710,158.6787
46.720,163.4183
46.730,158.0883
46.740,162.6047
46.750,161.4951
46.760,166.9111
46.770,165.5228
46.780,161.9729
46.790,165.0696
46.800,162.2300
46.810,167.5050
46.820,162.0923
46.830,164.5325
46.840,160.1568
46.850,164.9279
46.860,160.4879
46.870,158.4637
46.880,163.8756
46.890,162.3982
46.900,167.3035
46.910,159.1015
46.920,160.2467
46.930,158.4361
46.940,166.3396
46.950,162.2929
46.960,160.9260
46.970,166.4479
46.980,160.7718
46.990,162.8175
47.000,68.1991
47.010,68.3350
47.020,60.0759
47.030,59.7229
47.040,58.6443
47.050,58.1688
47.060,65.4467
47.070,63.3667
47.080,60.2586
47.090,62.8598
47.100,63.2571
47.110,63.4137
47.120,64.7703
47.130,63.3157
47.140,65.7998
47.150,69.9863
47.160,70.5142
47.170,69.5326
47.180,69.0661
47.190,72.1481
47.200,68.2126
47.210,64.3237
47.220,68.1093
47.230,70.6651
47.240,71.0105
47.250,71.8591
47.260,66.7562
47.270,71.7460
47.280,64.0826
47.290,63.5440
47.300,71.0962
47.310,68.9177
47.320,65.7488
47.330,72.2916
47.340,73.6850
47.350,63.6640
47.360,75.5692
47.370,69.3433
47.380,73.2079
47.390,66.7326
47.400,66.6592
47.410,64.3783
47.420,64.4907
47.430,76.1100
47.440,71.3410
47.450,73.0730
47.460,74.5897
47.470,70.5748
47.480,66.2614
47.490,65.9889
47.500,72.1430
47.510,69.5991
47.520,64.7047
47.530,75.3722
47.540,67.5063
47.550,74.9186
47.560,66.8200
47.570,72.2581
47.580,67.7007
47.590,67.9638
47.600,72.0713
47.610,72.4780
47.620,70.6922
47.630,73.4798
47.640,66.6369
47.650,71.2300
47.660,65.0837
47.670,65.1310
47.680,71.3019
47.690,69.2997
47.700,68.0448
47.710,68.9544
47.720,67.4216
47.730,68.9218
47.740,65.1310
47.750,67.1400
47.760,66.1027
47.770,65.5694
47.780,63.8948
47.790,70.2013
47.800,61.0255
47.810,69.5184
47.820,60.7460
47.830,64.0957
47.840,61.1287
47.850,60.0765
47.860,69.5627
47.870,64.3641
47.880,66.4852
47.890,69.6508
47.900,65.3059
47.910,68.1074
47.920,60.4618
47.930,59.4161
47.940,60.6999
47.950,64.0482
47.960,62.6007
47.970,61.4454
47.980,66.1701
47.990,65.0530
48.000,64.4117
48.010,67.3969
48.020,63.6441
48.030,56.7845
48.040,67.1908
48.050,63.7999
48.060,58.6242
48.070,66.8719
48.080,62.4996
48.090,62.7645
48.100,64.4544
48.110,58.8779
48.120,62.8838
48.130,58.7867
48.140,59.1182
48.150,59.1066
48.160,59.6515
48.170,58.3132
48.180,56.7376
48.190,56.2095
48.200,62.5730
48.210,64.5114
48.220,62.0304
48.230,66.9972
48.240,55.2237
48.250,55.5522
48.260,63.0109
48.270,64.7008
48.280,60.2329
48.290,56.5976
48.300,67.1870
48.310,60.8753
48.320,61.7718
48.330,66.1606
48.340,63.8897
48.350,63.1879
48.360,61.0858
48.370,64.9979
48.380,57.8419
48.390,57.8835
48.400,57.8803
48.410,62.0035
48.420,59.5170
48.430,57.2899
48.440,60.5189
48.450,61.9421
48.460,59.0900
48.470,67.2465
48.480,63.6117
48.490,68.9661
48.500,65.3475
48.510,69.8387
48.520,70.3766
48.530,63.7481
48.540,60.9907
48.550,59.8097
48.560,64.4325
48.570,67.4978
48.580,66.5368
48.590,67.8401
48.600,72.4719
48.610,68.5737
48.620,65.9264
48.630,70.3387
48.640,71.0330
48.650,72.2807
48.660,73.1998
48.670,70.4307
48.680,67.7258
48.690,63.4544
48.700,70.1277
48.710,69.7725
48.720,66.3535
48.730,65.0320
48.740,73.1434
48.750,68.5147
48.760,65.6795
48.770,73.4385
48.780,74.0362
48.790,71.1336
48.800,71.1512
48.810,64.6556
48.820,73.5108
48.830,71.6718
48.840,66.8699
48.850,68.4300
48.860,70.6893
48.870,66.8076
48.880,68.4510
48.890,76.6094
48.900,64.8416
48.910,66.3810
48.920,74.2919
48.930,75.5237
48.940,65.4444
48.950,71.0278
48.960,69.4808
48.970,70.2440
48.980,69.9376
48.990,72.9689
49.000,73.1924
49.010,73.4612
49.020,73.6150
49.030,72.6690
49.040,68.0372
49.050,75.8780
49.060,66.3688
49.070,64.9966
49.080,64.1832
49.090,68.9004
49.100,69.7446
49.110,66.0721
49.120,70.8376
49.130,64.2290
49.140,63.7449
49.150,72.2583
49.160,73.7049
49.170,73.6487
49.180,70.7257
49.190,71.5289
49.200,73.4230
49.210,72.6120
49.220,63.2323
49.230,70.9450
49.240,65.8805
49.250,64.3974
49.260,63.1068
49.270,71.7820
49.280,67.7305
49.290,60.8719
49.300,64.2167
49.310,60.7893
49.320,68.2400
49.330,61.8989
49.340,67.8397
49.350,69.7206
49.360,69.1644
49.370,61.9488
49.380,69.5405
49.390,66.2311
49.400,68.1957
49.410,68.0867
49.420,65.8709
49.430,62.8825
49.440,60.0042
49.450,64.3433
49.460,57.9897
49.470,65.6662
49.480,65.0269
49.490,63.3593
49.500,60.0797
49.510,64.7356
49.520,64.3546
49.530,57.4562
49.540,65.5365
49.550,56.1760
49.560,62.8532
49.570,65.8613
49.580,57.8332
49.590,65.6961
49.600,61.0813
49.610,62.0931
49.620,66.5824
49.630,58.8767
49.640,61.3744
49.650,58.6248
49.660,62.4942
49.670,62.7598
49.680,65.4738
49.690,55.9351
49.700,63.9156
49.710,66.4181
49.720,57.6763
49.730,58.5858
49.740,67.2482
49.750,55.6954
49.760,62.9124
49.770,58.0231
49.780,61.0798
49.790,58.3943
49.800,66.4163
49.810,60.3102
49.820,61.2780
49.830,65.1458
49.840,63.4114
49.850,57.0585
49.860,60.7473
49.870,61.4830
49.880,63.3094
49.890,64.3936
49.900,66.1792
49.910,65.8457
49.920,69.3053
49.930,59.1591
49.940,70.5407
49.950,62.2612
49.960,66.9921
49.970,70.2410
49.980,61.9780
49.990,65.1499
50.000,65.6255
50.010,64.3188
50.020,61.8382
50.030,69.9942
50.040,65.2425
50.050,70.3704
50.060,66.8500
50.070,71.6449
50.080,72.7913
50.090,73.3864
50.100,66.9519
50.110,69.1079
50.120,63.0300
50.130,74.4673
50.140,68.6181
50.150,66.2927
50.160,66.3400
50.170,71.7938
50.180,70.3369
50.190,69.6794
50.200,71.1932
50.210,67.4995
50.220,66.0820
50.230,75.9441
50.240,71.0361
50.250,71.4988
50.260,70.9110
50.270,72.1285
50.280,67.3375
50.290,73.7110
50.300,74.0410
50.310,69.2872
50.320,64.8366
50.330,67.9131
50.340,73.9370
50.350,73.7481
50.360,76.3300
50.370,66.5363
50.380,71.2002
50.390,65.9022
50.400,68.8298
50.410,69.9497
50.420,73.1480
50.430,65.4920
50.440,67.0484
50.450,65.5830
50.460,68.3818
50.470,72.4575
50.480,64.7889
50.490,71.0827
50.500,71.1513
50.510,66.9881
50.520,69.4170
50.530,74.9106
50.540,64.8709
50.550,66.3887
50.560,63.2119
50.570,63.9894
50.580,71.6267
50.590,62.6842
50.600,71.6238
50.610,72.5616
50.620,71.4594
50.630,71.8971
50.640,70.1178
50.650,66.3821
50.660,64.6557
50.670,61.2382
50.680,70.8353
50.690,66.8330
50.700,70.4229
50.710,71.7231
50.720,64.0219
50.730,67.6847
50.740,61.0194
50.750,61.5377
50.760,63.3232
50.770,60.3172
50.780,61.7442
50.790,62.0992
50.800,60.4825
50.810,58.1585
50.820,59.2651
50.830,59.6847
50.840,59.8046
50.850,63.3668
50.860,68.4659
50.870,62.2077
50.880,62.6572
50.890,65.8160
50.900,59.5487
50.910,68.4343
50.920,66.0370
50.930,57.9966
50.940,58.8365
50.950,63.8445
50.960,59.4047
50.970,56.3281
50.980,59.3346
50.990,64.0945
51.000,56.0375
51.010,59.5605
51.020,66.4529
51.030,66.9997
51.040,65.0588
51.050,63.4755
51.060,66.6876
51.070,56.6603
51.080,62.0404
51.090,62.6253
51.100,63.6304
51.110,58.0911
51.120,55.5926
51.130,60.5739
51.140,55.8716
51.150,56.0792
51.160,58.7763
51.170,62.5124
51.180,66.5398
51.190,57.3120
51.200,59.1681
51.210,64.5386
51.220,65.0158
51.230,58.8109
51.240,64.7391
51.250,57.0539
51.260,60.2687
51.270,59.3537
51.280,63.9880
51.290,68.2757
51.300,67.7086
51.310,68.7494
51.320,62.5601
51.330,64.3243
51.340,65.0213
51.350,59.8250
51.360,69.4680
51.370,69.0904
51.380,59.3607
51.390,64.0877
51.400,65.9937
51.410,66.7426
51.420,63.6998
51.430,67.5679
51.440,66.2798
51.450,62.4246
51.460,69.3734
51.470,69.8762
51.480,69.1798
51.490,62.6734
51.500,66.1616
51.510,71.6680
51.520,67.0357
51.530,66.2728
51.540,73.7529
51.550,65.3184
51.560,67.6749
51.570,64.4245
51.580,73.8883
51.590,73.2045
51.600,67.2295
51.610,74.7323
51.620,75.5655
51.630,70.8202
51.640,65.6189
51.650,75.2238
51.660,68.6213
51.670,66.3375
51.680,68.1614
51.690,70.8291
51.700,70.9342
51.710,74.8438
51.720,72.3972
51.730,71.9692
51.740,65.7159
51.750,71.2781
51.760,67.5545
51.770,65.5593
51.780,72.7599
51.790,73.0307
51.800,75.2494
51.810,72.1714
51.820,75.8793
51.830,76.0849
51.840,67.0366
51.850,72.3326
51.860,71.9886
51.870,67.7269
51.880,74.4027
51.890,75.4066
51.900,74.5784
51.910,65.8128
51.920,74.8869
51.930,73.5426
51.940,65.7682
51.950,70.1741
51.960,73.4455
51.970,72.2304
51.980,66.6559
51.990,65.1236
52.000,72.2483
52.010,71.4552
52.020,62.8974
52.030,71.9713
52.040,69.6720
52.050,67.9914
52.060,72.4672
52.070,64.9105
52.080,71.1748
52.090,66.6791
52.100,62.2726
52.110,67.7894
52.120,63.5054
52.130,66.5741
52.140,71.2492
52.150,61.0359
52.160,70.3866
52.170,71.3494
52.180,71.4888
52.190,64.4742
52.200,70.8174
52.210,69.1653
52.220,63.3605
52.230,67.3598
52.240,62.3419
52.250,59.2565
52.260,69.6941
52.270,67.9796
52.280,59.5421
52.290,64.3600
52.300,63.5291
52.310,61.9141
52.320,64.1124
52.330,60.8012
52.340,62.8644
52.350,64.2642
52.360,63.9536
52.370,56.7106
52.380,67.8154
52.390,62.2842
52.400,66.0151
52.410,61.2319
52.420,65.5792
52.430,63.3367
52.440,66.0454
52.450,58.1700
52.460,57.7565
52.470,59.9925
52.480,55.7433
52.490,66.2287
52.500,61.7481
52.510,55.9440
52.520,63.1951
52.530,64.8680
52.540,55.7646
52.550,61.9097
52.560,64.3683
52.570,66.3022
52.580,59.1709
52.590,56.4680
52.600,59.8317
52.610,59.0997
52.620,66.7269
52.630,64.2530
52.640,60.8498
52.650,65.8155
52.660,57.9714
52.670,67.1168
52.680,62.8988
52.690,61.1634
52.700,62.9101
52.710,57.9693
52.720,66.8359
52.730,57.9221
52.740,60.6491
52.750,65.2604
52.760,64.3741
52.770,69.2241
52.780,63.8113
52.790,63.0179
52.800,63.6157
52.810,59.6584
52.820,65.6857
52.830,60.7918
52.840,61.5009
52.850,61.1554
52.860,62.0868
52.870,63.1414
52.880,65.3095
52.890,61.3554
52.900,66.2308
52.910,67.6020
52.920,66.3479
52.930,66.7583
52.940,63.7613
52.950,68.2018
52.960,72.1997
52.970,65.6601
52.980,71.7219
52.990,74.1092
53.000,70.2682
53.010,69.8838
53.020,65.3151
53.030,66.8200
53.040,71.4392
53.050,68.1430
53.060,73.6744
53.070,67.6755
53.080,67.9630
53.090,76.0873
53.100,69.5444
53.110,67.1058
53.120,72.8347
53.130,75.0144
53.140,76.6594
53.150,66.6466
53.160,65.2839
53.170,74.1284
53.180,72.2010
53.190,67.9350
53.200,75.8021
53.210,73.2433
53.220,76.5922
53.230,69.0011
53.240,70.0456
53.250,66.0838
53.260,75.7176
53.270,71.8382
53.280,71.2316
53.290,76.2542
53.300,66.1803
53.310,68.3836
53.320,71.3668
53.330,66.5491
53.340,75.1779
53.350,71.8758
53.360,75.6636
53.370,65.8408
53.380,74.6976
53.390,74.6289
53.400,75.2411
53.410,73.7649
53.420,64.1171
53.430,71.9188
53.440,71.6469
53.450,72.2592
53.460,65.3634
53.470,74.2595
53.480,62.5891
53.490,68.5155
53.500,68.8721
53.510,71.8790
53.520,64.9860
53.530,71.5963
53.540,64.9146
53.550,68.3290
53.560,66.4165
53.570,63.3116
53.580,65.2436
53.590,60.0443
53.600,66.8165
53.610,68.0125
53.620,63.6611
53.630,67.0810
53.640,67.7589
53.650,70.7877
53.660,70.4530
53.670,58.4585
53.680,64.8439
53.690,58.8233
53.700,63.3349
53.710,59.6682
53.720,65.6928
53.730,62.2767
53.740,61.9110
53.750,68.8035
53.760,66.5644
53.770,59.3760
53.780,64.3921
53.790,68.0819
53.800,59.3524
53.810,66.0549
53.820,65.0580
53.830,60.5724
53.840,67.2138
53.850,65.1587
53.860,60.5454
53.870,60.3862
53.880,58.2426
53.890,57.4017
53.900,58.3348
53.910,65.4016
53.920,56.4530
53.930,62.6782
53.940,59.5873
53.950,65.6601
53.960,57.7436
53.970,61.5899
53.980,64.0451
53.990,66.0049
54.000,63.5235
54.010,56.1801
54.020,64.5478
54.030,63.8363
54.040,67.5106
54.050,57.3067
54.060,61.2518
54.070,60.0171
54.080,67.7724
54.090,68.7541
54.100,60.7182
54.110,63.3754
54.120,61.1149
54.130,67.9587
54.140,63.9179
54.150,61.2682
54.160,63.2859
54.170,58.3500
54.180,64.7773
54.190,62.1025
54.200,67.5668
54.210,63.9476
54.220,60.5457
54.230,62.3249
54.240,70.4859
54.250,64.6100
54.260,63.1757
54.270,66.3311
54.280,70.8680
54.290,64.4571
54.300,60.9931
54.310,63.0764
54.320,65.1049
54.330,62.4483
54.340,70.3761
54.350,72.0225
54.360,65.2003
54.370,68.3431
54.380,70.8190
54.390,74.0087
54.400,69.1955
54.410,73.1154
54.420,68.8310
54.430,69.4896
54.440,65.0434
54.450,66.5659
54.460,64.8265
54.470,72.3493
54.480,72.4620
54.490,75.1122
54.500,67.3450
54.510,75.6576
54.520,71.1877
54.530,65.2251
54.540,71.1209
54.550,66.1261
54.560,75.1982
54.570,66.4780
54.580,69.1646
54.590,65.6170
54.600,65.6062
54.610,69.0530
54.620,73.1698
54.630,72.2517
54.640,68.3405
54.650,66.3019
54.660,72.4585
54.670,72.6286
54.680,65.4825
54.690,65.9750
54.700,74.0853
54.710,66.8035
54.720,73.7128
54.730,71.6687
54.740,67.1263
54.750,65.8414
54.760,64.8396
54.770,64.6392
54.780,68.3983
54.790,73.9130
54.800,74.9980
54.810,75.7490
54.820,69.6482
54.830,73.8551
54.840,68.8161
54.850,73.6009
54.860,70.8612
54.870,74.6685
54.880,74.0978
54.890,74.1234
54.900,66.9001
54.910,63.4331
54.920,64.4711
54.930,66.7529
54.940,73.3167
54.950,63.8560
54.960,72.2887
54.970,66.1147
54.980,70.0216
54.990,71.7844
55.000,71.9661
55.010,61.1216
55.020,61.6779
55.030,70.5435
55.040,68.2598
55.050,61.4761
55.060,70.1408
55.070,67.3302
55.080,62.5493
55.090,64.3425
55.100,69.6802
55.110,69.5323
55.120,62.2443
55.130,63.9709
55.140,62.1334
55.150,58.7887
55.160,60.9327
55.170,68.0675
55.180,59.8576
55.190,60.8654
55.200,67.9208
55.210,67.2631
55.220,67.1778
55.230,64.4111
55.240,62.2396
55.250,56.7290
55.260,68.2139
55.270,56.4172
55.280,63.1430
55.290,67.8732
55.300,64.6392
55.310,61.1899
55.320,66.7936
55.330,62.5169
55.340,65.8020
55.350,63.7216
55.360,61.9873
55.370,57.2466
55.380,64.1602
55.390,64.3154
55.400,58.7366
55.410,61.3008
55.420,64.8273
55.430,61.4649
55.440,66.5208
55.450,60.3452
55.460,62.4709
55.470,64.7791
55.480,67.5863
55.490,58.4886
55.500,56.9498
55.510,60.7669
55.520,58.9430
55.530,61.5205
55.540,63.6726
55.550,59.8088
55.560,65.1294
55.570,60.6459
55.580,67.2192
55.590,68.3307
55.600,68.7884
55.610,60.7531
55.620,69.7415
55.630,65.8406
55.640,60.9142
55.650,65.7788
55.660,67.3649
55.670,60.5911
55.680,64.5264
55.690,69.2831
55.700,66.5628
55.710,70.1702
55.720,72.7237
55.730,68.1075
55.740,64.2777
55.750,70.7732
55.760,69.0272
55.770,66.1191
55.780,63.6179
55.790,66.6950
55.800,67.9061
55.810,64.1476
55.820,65.7615
55.830,70.1681
55.840,66.7099
55.850,72.4461
55.860,67.4147
55.870,63.9505
55.880,66.6235
55.890,64.8100
55.900,68.9744
55.910,65.2948
55.920,71.6138
55.930,65.0611
55.940,70.5620
55.950,67.8935
55.960,67.1029
55.970,74.8461
55.980,72.7500
55.990,70.4638
56.000,76.7595
56.010,70.9601
56.020,65.5019
56.030,76.2854
56.040,65.7998
56.050,68.6222
56.060,72.0674
56.070,67.1130
56.080,68.4685
56.090,67.2990
56.100,66.7144
56.110,68.4656
56.120,72.6735
56.130,66.7060
56.140,75.3444
56.150,69.8319
56.160,73.0935
56.170,71.3162
56.180,74.8939
56.190,69.1505
56.200,69.4844
56.210,75.9908
56.220,69.1749
56.230,64.5755
56.240,64.9925
56.250,71.6668
56.260,73.7962
56.270,69.9146
56.280,74.5060
56.290,64.2176
56.300,70.5454
56.310,68.6377
56.320,71.4122
56.330,70.1303
56.340,71.5847
56.350,65.7649
56.360,64.8666
56.370,68.5670
56.380,73.4613
56.390,61.7613
56.400,63.4972
56.410,70.2470
56.420,72.5638
56.430,71.9556
56.440,67.3519
56.450,65.5565
56.460,66.9017
56.470,70.5635
56.480,61.5480
56.490,59.8461
56.500,67.1685
56.510,66.5307
56.520,69.7864
56.530,68.4645
56.540,68.0272
56.550,64.6982
56.560,58.6682
56.570,61.1781
56.580,65.1340
56.590,65.3448
56.600,59.8955
56.610,68.9083
56.620,63.4304
56.630,67.5274
56.640,62.5357
56.650,64.6817
56.660,66.8875
56.670,62.9099
56.680,64.8759
56.690,62.9211
56.700,57.4377
56.710,68.0518
56.720,64.9604
56.730,67.0928
56.740,57.9497
56.750,60.5996
56.760,56.9293
56.770,59.2865
56.780,60.2416
56.790,57.7448
56.800,66.0662
56.810,61.6855
56.820,58.3886
56.830,62.9485
56.840,58.3065
56.850,63.6144
56.860,67.8690
56.870,67.5118
56.880,59.7450
56.890,59.3099
56.900,62.1424
56.910,64.2622
56.920,63.7564
56.930,62.4674
56.940,65.8462
56.950,59.1021
56.960,68.4183
56.970,67.7245
56.980,63.2633
56.990,65.4885
57.000,67.3174
57.010,63.8012
57.020,68.9550
57.030,60.8246
57.040,68.0345
57.050,65.6813
57.060,63.4499
57.070,60.7683
57.080,71.4417
57.090,68.0766
57.100,66.3912
57.110,65.5805
57.120,65.4172
57.130,66.1465
57.140,64.3780
57.150,64.3722
57.160,61.3070
57.170,66.7052
57.180,70.4058
57.190,64.6229
57.200,63.1378
57.210,70.5205
57.220,65.7929
57.230,68.4383
57.240,67.6702
57.250,72.2768
57.260,69.0203
57.270,63.4355
57.280,65.5310
57.290,70.0256
57.300,66.3142
57.310,72.6562
57.320,66.5744
57.330,74.0588
57.340,70.7467
57.350,71.0545
57.360,73.5241
57.370,71.2556
57.380,69.7540
57.390,76.0497
57.400,66.5241
57.410,76.8039
57.420,68.1436
57.430,75.2907
57.440,69.2288
57.450,75.7714
57.460,73.9448
57.470,67.3524
57.480,66.4169
57.490,70.4523
57.500,77.5433
57.510,76.8808
57.520,67.5381
57.530,67.4465
57.540,67.7979
57.550,69.1727
57.560,77.2041
57.570,71.8889
57.580,69.2553
57.590,69.1291
57.600,71.7218
57.610,66.9643
57.620,75.9537
57.630,72.2289
57.640,75.8698
57.650,72.0963
57.660,66.6655
57.670,72.2154
57.680,75.1113
57.690,75.7253
57.700,68.6140
57.710,67.8481
57.720,73.6068
57.730,63.6169
57.740,68.3025
57.750,71.4879
57.760,63.9025
57.770,66.1645
57.780,74.0557
57.790,62.6346
57.800,62.9854
57.810,62.6405
57.820,70.2294
57.830,67.6458
57.840,68.0240
57.850,72.6158
57.860,72.7600
57.870,64.3499
57.880,64.3322
57.890,65.3173
57.900,61.5926
57.910,65.4708
57.920,61.5592
57.930,65.6215
57.940,63.9041
57.950,67.8833
57.960,68.3653
57.970,65.9696
57.980,66.5696
57.990,58.4597
58.000,60.2815
58.010,64.4646
58.020,57.9641
58.030,64.5411
58.040,60.1608
58.050,64.4557
58.060,62.2615
58.070,57.3330
58.080,65.4729
58.090,60.0379
58.100,58.2803
58.110,64.2911
58.120,56.9063
58.130,68.3864
58.140,60.7533
58.150,58.8136
58.160,56.9460
58.170,62.9202
58.180,65.3256
58.190,62.1312
58.200,65.7234
58.210,65.1859
58.220,65.2316
58.230,63.6271
58.240,61.6790
58.250,67.5515
58.260,57.6888
58.270,61.9741
58.280,63.9642
58.290,65.0227
58.300,64.4103
58.310,68.1605
58.320,60.5960
58.330,68.5821
58.340,62.9760
58.350,67.5751
58.360,62.6512
58.370,57.4395
58.380,68.9987
58.390,65.1148
58.400,66.1126
58.410,58.8018
58.420,69.5674
58.430,64.9403
58.440,58.9862
58.450,66.4689
58.460,60.6686
58.470,69.1962
58.480,70.1140
58.490,64.7737
58.500,66.4184
58.510,64.2430
58.520,66.2406
58.530,68.8387
58.540,68.1889
58.550,65.4075
58.560,65.1499
58.570,69.5017
58.580,70.2845
58.590,62.6865
58.600,66.4133
58.610,70.6833
58.620,73.8762
58.630,62.9655
58.640,71.0820
58.650,70.5794
58.660,64.5779
58.670,70.4627
58.680,66.1553
58.690,65.6383
58.700,65.3817
58.710,70.0791
58.720,64.7509
58.730,65.4220
58.740,67.0000
58.750,71.1481
58.760,73.0869
58.770,66.1886
58.780,71.5336
58.790,65.7346
58.800,68.1580
58.810,71.6254
58.820,74.1798
58.830,72.9867
58.840,75.0501
58.850,66.1451
58.860,70.0279
58.870,65.7306
58.880,71.5258
58.890,75.2633
58.900,69.3963
58.910,70.1141
58.920,68.4674
58.930,69.4850
58.940,68.9522
58.950,69.5547
58.960,73.3449
58.970,70.7043
58.980,65.8361
58.990,68.6829
59.000,70.4668
59.010,73.9913
59.020,74.3142
59.030,70.7445
59.040,69.8544
59.050,77.0014
59.060,73.4084
59.070,69.5051
59.080,66.2868
59.090,71.9860
59.100,74.8752
59.110,73.9132
59.120,66.0321
59.130,66.4258
59.140,65.1496
59.150,74.1056
59.160,74.7456
59.170,70.8271
59.180,68.2179
59.190,75.0692
59.200,68.9167
59.210,71.6045
59.220,65.8092
59.230,67.1953
59.240,65.0693
59.250,69.0320
59.260,69.4801
59.270,63.3519
59.280,66.3119
59.290,64.8609
59.300,65.5487
59.310,64.5757
59.320,64.5190
59.330,67.9749
59.340,71.4414
59.350,60.9949
59.360,62.2888
59.370,68.0854
59.380,66.2830
59.390,61.5403
59.400,67.7608
59.410,63.7662
59.420,69.9479
59.430,68.5623
59.440,63.1375
59.450,67.8300
59.460,59.5846
59.470,69.1608
59.480,67.2667
59.490,61.1510
59.500,61.6419
59.510,66.5753
59.520,65.4935
59.530,58.5150
59.540,61.1364
59.550,58.6137
59.560,65.3723
59.570,66.6065
59.580,62.7039
59.590,60.1444
59.600,62.5460
59.610,67.0777
59.620,65.5320
59.630,64.1807
59.640,65.1365
59.650,58.8510
59.660,56.8603
59.670,62.0646
59.680,62.3157
59.690,64.9108
59.700,57.6118
59.710,61.3382
59.720,61.5787
59.730,64.0925
59.740,64.7877
59.750,57.4073
59.760,61.7888
59.770,63.3989
59.780,58.0274
59.790,58.3560
59.800,65.0582
59.810,65.0132
59.820,68.9470
59.830,59.9830
59.840,61.0491
59.850,67.0807
59.860,64.6553
59.870,67.8425
59.880,62.7850
59.890,67.6153
59.900,60.1824
59.910,69.3212
59.920,67.8873
59.930,69.8795
59.940,67.8657
59.950,62.9029
59.960,61.3342
59.970,65.8822
59.980,63.7929
59.990,72.8713
