t_s,envelope_uV
0.000,54.1682
0.010,53.9164
0.020,48.8543
0.030,52.2847
0.040,55.0889
0.050,48.1732
0.060,57.4450
0.070,51.4964
0.080,56.4481
0.090,49.7646
0.100,57.0571
0.110,49.6363
0.120,57.1936
0.130,50.1760
0.140,52.9860
0.150,50.5694
0.160,53.4260
0.170,56.9552
0.180,50.6423
0.190,58.7161
0.200,51.0234
0.210,54.2601
0.220,60.5275
0.230,52.8668
0.240,60.0963
0.250,54.8560
0.260,53.1883
0.270,51.6389
0.280,61.0089
0.290,57.3832
0.300,56.1536
0.310,56.1999
0.320,61.0396
0.330,55.6466
0.340,54.8937
0.350,60.5576
0.360,58.3037
0.370,59.0523
0.380,56.1511
0.390,60.1488
0.400,60.7436
0.410,59.9626
0.420,54.6550
0.430,56.9982
0.440,55.7065
0.450,53.8233
0.460,53.5656
0.470,56.8579
0.480,58.1671
0.490,54.9273
0.500,59.5081
0.510,50.4033
0.520,57.7754
0.530,56.4886
0.540,60.1046
0.550,58.6040
0.560,51.0151
0.570,59.0465
0.580,57.4577
0.590,56.9700
0.600,59.0157
0.610,58.9067
0.620,53.4964
0.630,55.5591
0.640,53.7460
0.650,57.8868
0.660,57.1171
0.670,55.3307
0.680,56.9883
0.690,53.7729
0.700,50.4193
0.710,53.2858
0.720,47.2772
0.730,52.7421
0.740,56.6955
0.750,54.1127
0.760,52.1698
0.770,49.6833
0.780,48.3755
0.790,52.0827
0.800,51.2858
0.810,54.2267
0.820,48.0902
0.830,49.2135
0.840,47.2422
0.850,48.6730
0.860,50.8653
0.870,44.8307
0.880,48.4676
0.890,49.2799
0.900,47.8557
0.910,49.7951
0.920,49.6511
0.930,47.3246
0.940,51.3634
0.950,45.4337
0.960,47.7907
0.970,47.9703
0.980,50.5222
0.990,47.8940
1.000,47.0904
1.010,48.8158
1.020,45.9654
1.030,51.1557
1.040,52.1626
1.050,52.0827
1.060,48.2846
1.070,51.0416
1.080,51.2818
1.090,51.9297
1.100,44.3370
1.110,44.1253
1.120,48.9568
1.130,46.7529
1.140,50.6875
1.150,44.0066
1.160,53.5195
1.170,46.2967
1.180,50.0877
1.190,52.3515
1.200,47.1734
1.210,48.6019
1.220,46.8051
1.230,46.3870
1.240,48.7094
1.250,51.5521
1.260,51.6180
1.270,53.5262
1.280,50.0874
1.290,44.9233
1.300,49.4242
1.310,46.1710
1.320,52.3789
1.330,52.7728
1.340,45.8233
1.350,53.9655
1.360,49.2422
1.370,50.1965
1.380,55.6296
1.390,50.8981
1.400,51.3076
1.410,51.4489
1.420,54.7974
1.430,47.2973
1.440,52.9762
1.450,57.7434
1.460,56.8599
1.470,55.2269
1.480,52.4363
1.490,53.8217
1.500,56.5933
1.510,49.9957
1.520,55.1098
1.530,49.3559
1.540,51.9643
1.550,57.1714
1.560,58.7242
1.570,58.1808
1.580,52.5098
1.590,51.9321
1.600,58.2007
1.610,51.0966
1.620,56.7865
1.630,59.8221
1.640,55.4761
1.650,54.5661
1.660,55.7821
1.670,54.0715
1.680,58.1818
1.690,57.0073
1.700,57.2902
1.710,56.7209
1.720,58.3523
1.730,61.5429
1.740,52.1249
1.750,54.4270
1.760,53.4982
1.770,61.2884
1.780,54.3696
1.790,60.4320
1.800,54.6302
1.810,51.9319
1.820,57.3408
1.830,57.2955
1.840,56.1127
1.850,58.3246
1.860,54.1494
1.870,54.4671
1.880,60.3769
1.890,60.3348
1.900,52.5634
1.910,52.9349
1.920,53.2299
1.930,53.9277
1.940,57.6983
1.950,59.0886
1.960,52.7216
1.970,52.1553
1.980,52.7297
1.990,59.4816
2.000,50.7250
2.010,58.3990
2.020,54.8844
2.030,56.8573
2.040,58.7151
2.050,49.6595
2.060,56.6124
2.070,56.4067
2.080,54.7218
2.090,55.7133
2.100,48.8061
2.110,52.1696
2.120,53.2791
2.130,48.4995
2.140,53.0063
2.150,55.7453
2.160,49.3766
2.170,48.9446
2.180,48.0768
2.190,52.3857
2.200,49.4216
2.210,48.4722
2.220,50.0585
2.230,53.3338
2.240,49.8339
2.250,48.8935
2.260,52.2080
2.270,49.6742
2.280,46.5026
2.290,46.8160
2.300,54.7564
2.310,49.4659
2.320,50.0236
2.330,50.7311
2.340,46.6078
2.350,51.6201
2.360,53.2438
2.370,45.0225
2.380,45.1546
2.390,50.7941
2.400,53.7886
2.410,44.0502
2.420,49.2558
2.430,48.4477
2.440,46.7374
2.450,52.9260
2.460,47.1981
2.470,47.0956
2.480,51.0157
2.490,48.7891
2.500,47.8928
2.510,51.8383
2.520,52.7997
2.530,49.7826
2.540,45.8070
2.550,51.1365
2.560,52.2052
2.570,47.5860
2.580,47.4240
2.590,47.3623
2.600,53.1456
2.610,53.1169
2.620,46.0632
2.630,46.7181
2.640,46.9856
2.650,47.1831
2.660,50.1063
2.670,49.0938
2.680,54.1389
2.690,53.1793
2.700,45.8309
2.710,53.1689
2.720,46.2180
2.730,49.7777
2.740,48.5578
2.750,52.4010
2.760,46.2295
2.770,54.5960
2.780,51.3921
2.790,49.1576
2.800,46.4995
2.810,55.3869
2.820,47.9980
2.830,55.9614
2.840,53.8789
2.850,50.0791
2.860,48.6613
2.870,55.2345
2.880,51.7842
2.890,49.9834
2.900,56.7471
2.910,54.5380
2.920,55.6277
2.930,52.0738
2.940,51.9303
2.950,54.7335
2.960,58.2584
2.970,51.0138
2.980,55.7752
2.990,52.3188
3.000,58.2775
3.010,55.7295
3.020,59.6454
3.030,55.9170
3.040,53.5187
3.050,58.6060
3.060,58.6960
3.070,57.0195
3.080,54.3291
3.090,55.3434
3.100,58.5924
3.110,59.1383
3.120,59.1742
3.130,57.6581
3.140,52.8879
3.150,53.6921
3.160,55.5606
3.170,60.1046
3.180,53.0281
3.190,59.6872
3.200,59.4274
3.210,52.1955
3.220,54.1790
3.230,55.8563
3.240,59.1699
3.250,57.5451
3.260,61.7991
3.270,52.7708
3.280,56.2602
3.290,52.4159
3.300,53.1158
3.310,55.2162
3.320,56.7929
3.330,58.2029
3.340,53.0481
3.350,60.8325
3.360,53.3789
3.370,50.6948
3.380,54.7520
3.390,55.0608
3.400,60.3367
3.410,56.5226
3.420,50.5966
3.430,53.2790
3.440,57.3446
3.450,59.3870
3.460,49.5242
3.470,55.3980
3.480,54.6854
3.490,52.9201
3.500,55.7394
3.510,55.1222
3.520,49.7968
3.530,48.3786
3.540,51.8086
3.550,57.0943
3.560,49.5450
3.570,57.9039
3.580,57.1697
3.590,50.3593
3.600,49.1568
3.610,56.6781
3.620,47.7405
3.630,52.5253
3.640,52.3721
3.650,54.3971
3.660,48.2598
3.670,47.2231
3.680,52.8517
3.690,45.6998
3.700,47.5309
3.710,51.0511
3.720,46.5894
3.730,52.4339
3.740,53.5104
3.750,49.8424
3.760,48.4567
3.770,53.2856
3.780,47.9772
3.790,46.3576
3.800,49.4649
3.810,50.8172
3.820,51.6521
3.830,50.8087
3.840,50.4351
3.850,49.1454
3.860,51.8111
3.870,50.9685
3.880,51.8146
3.890,50.9947
3.900,50.1358
3.910,43.9860
3.920,44.2234
3.930,52.5661
3.940,49.5142
3.950,46.3812
3.960,49.3116
3.970,46.0655
3.980,51.7719
3.990,51.1690
4.000,46.0350
4.010,47.4826
4.020,53.9225
4.030,49.4016
4.040,53.5120
4.050,45.4618
4.060,47.5878
4.070,45.2204
4.080,49.5129
4.090,45.5535
4.100,52.8086
4.110,45.6844
4.120,54.3649
4.130,54.5796
4.140,55.0464
4.150,48.6703
4.160,50.0267
4.170,50.0150
4.180,51.5189
4.190,54.0314
4.200,50.6416
4.210,47.2643
4.220,48.2789
4.230,55.7862
4.240,50.4421
4.250,47.2910
4.260,50.9639
4.270,53.1025
4.280,53.3666
4.290,54.6829
4.300,55.5987
4.310,51.8263
4.320,51.9111
4.330,52.7655
4.340,53.8600
4.350,51.7045
4.360,50.1910
4.370,54.8534
4.380,50.5396
4.390,59.5154
4.400,57.5936
4.410,57.7509
4.420,55.9431
4.430,54.1056
4.440,57.2130
4.450,58.4603
4.460,51.0229
4.470,51.3515
4.480,51.4134
4.490,56.6256
4.500,61.1752
4.510,52.4834
4.520,57.4706
4.530,61.3883
4.540,59.9905
4.550,59.0686
4.560,55.7623
4.570,61.8020
4.580,58.8658
4.590,55.1947
4.600,52.7077
4.610,59.3016
4.620,60.7069
4.630,59.1954
4.640,57.8472
4.650,55.7971
4.660,55.7080
4.670,59.0535
4.680,54.3417
4.690,60.3335
4.700,52.9113
4.710,57.8676
4.720,54.7257
4.730,60.9893
4.740,58.1542
4.750,61.6357
4.760,59.1024
4.770,60.2759
4.780,51.5701
4.790,59.3184
4.800,60.5733
4.810,51.8604
4.820,52.3768
4.830,51.8205
4.840,57.0107
4.850,59.3907
4.860,56.7586
4.870,56.5292
4.880,58.3066
4.890,59.6871
4.900,54.6822
4.910,53.4870
4.920,51.1857
4.930,51.3199
4.940,59.1732
4.950,58.1987
4.960,49.9414
4.970,55.0969
4.980,56.2513
4.990,57.6794
5.000,56.0477
5.010,51.1412
5.020,49.6502
5.030,48.5242
5.040,55.8713
5.050,49.3998
5.060,49.0438
5.070,49.2584
5.080,49.8292
5.090,55.0052
5.100,55.3259
5.110,54.1165
5.120,49.8251
5.130,55.0645
5.140,48.7726
5.150,49.9890
5.160,48.2671
5.170,47.9684
5.180,52.4702
5.190,50.2959
5.200,53.8625
5.210,54.8351
5.220,50.1809
5.230,46.3902
5.240,47.6084
5.250,47.6285
5.260,51.3768
5.270,48.9675
5.280,51.9025
5.290,44.7786
5.300,45.1060
5.310,45.2229
5.320,47.1245
5.330,52.9010
5.340,44.0954
5.350,52.5923
5.360,52.3712
5.370,48.2996
5.380,50.4803
5.390,47.1931
5.400,48.0469
5.410,47.7673
5.420,44.1035
5.430,52.5879
5.440,44.8699
5.450,48.8533
5.460,44.5700
5.470,48.6075
5.480,45.0952
5.490,53.3420
5.500,49.6790
5.510,46.6112
5.520,48.3609
5.530,48.5170
5.540,51.2958
5.550,47.9828
5.560,46.9593
5.570,49.4720
5.580,50.7353
5.590,53.7039
5.600,51.3575
5.610,48.8397
5.620,47.5657
5.630,51.3804
5.640,48.1401
5.650,54.4255
5.660,56.7643
5.670,52.5624
5.680,50.7938
5.690,57.2571
5.700,53.8209
5.710,51.1948
5.720,55.9920
5.730,52.1181
5.740,51.8789
5.750,57.5513
5.760,56.7657
5.770,51.1936
5.780,49.6939
5.790,54.6844
5.800,52.1043
5.810,59.0682
5.820,59.4643
5.830,50.1318
5.840,59.5474
5.850,53.7544
5.860,58.3426
5.870,56.2472
5.880,51.7787
5.890,60.6744
5.900,58.9326
5.910,51.3827
5.920,53.2472
5.930,58.9635
5.940,59.7028
5.950,53.5415
5.960,58.4128
5.970,51.7735
5.980,57.7637
5.990,62.0460
6.000,61.4846
6.010,59.4627
6.020,53.4679
6.030,59.7575
6.040,53.2970
6.050,53.8777
6.060,56.0069
6.070,57.1821
6.080,60.1732
6.090,58.4598
6.100,56.2304
6.110,56.2388
6.120,57.2518
6.130,57.2762
6.140,58.1692
6.150,61.1254
6.160,61.8239
6.170,61.0497
6.180,55.0918
6.190,58.5096
6.200,53.8909
6.210,55.0042
6.220,59.5098
6.230,54.4250
6.240,59.5541
6.250,60.6437
6.260,51.0158
6.270,57.4475
6.280,58.3092
6.290,54.5716
6.300,54.8749
6.310,53.5321
6.320,52.3760
6.330,57.9620
6.340,57.8881
6.350,57.4610
6.360,52.9768
6.370,54.9956
6.380,49.4746
6.390,48.7718
6.400,56.0322
6.410,50.9350
6.420,54.7976
6.430,56.7590
6.440,54.1747
6.450,49.0718
6.460,56.5064
6.470,56.0705
6.480,47.1507
6.490,54.6096
6.500,50.4272
6.510,52.5923
6.520,46.9169
6.530,50.3651
6.540,50.8851
6.550,51.5381
6.560,49.5602
6.570,53.1000
6.580,50.9807
6.590,49.5486
6.600,47.8943
6.610,47.4978
6.620,54.3486
6.630,49.7992
6.640,46.3960
6.650,51.3944
6.660,54.0453
6.670,46.4859
6.680,47.6527
6.690,49.9798
6.700,53.8811
6.710,44.5004
6.720,46.2118
6.730,44.5666
6.740,48.5832
6.750,48.8416
6.760,49.7905
6.770,47.4588
6.780,45.7050
6.790,52.0903
6.800,45.3536
6.810,48.3686
6.820,49.5830
6.830,46.3360
6.840,45.4684
6.850,44.8548
6.860,47.1748
6.870,49.7672
6.880,53.7789
6.890,46.1684
6.900,50.2102
6.910,47.5496
6.920,48.3993
6.930,48.0245
6.940,51.1400
6.950,55.1641
6.960,48.8751
6.970,53.4720
6.980,52.1134
6.990,50.2383
7.000,55.6206
7.010,53.9472
7.020,50.1570
7.030,53.9683
7.040,49.8238
7.050,55.1410
7.060,53.2540
7.070,54.6924
7.080,57.1277
7.090,54.4443
7.100,52.5131
7.110,50.3359
7.120,47.9952
7.130,49.6781
7.140,51.2869
7.150,57.0257
7.160,55.8565
7.170,53.8124
7.180,53.6428
7.190,51.3301
7.200,53.5090
7.210,51.3211
7.220,56.7592
7.230,49.9615
7.240,58.1393
7.250,54.4642
7.260,52.2116
7.270,58.7262
7.280,58.7722
7.290,52.1935
7.300,51.4754
7.310,60.1411
7.320,54.6653
7.330,59.9998
7.340,55.4303
7.350,58.0525
7.360,51.6948
7.370,58.5510
7.380,58.7580
7.390,56.3215
7.400,53.7300
7.410,57.0786
7.420,60.1004
7.430,61.6292
7.440,52.2127
7.450,56.1233
7.460,55.3255
7.470,58.0836
7.480,54.2873
7.490,55.2152
7.500,60.2809
7.510,61.1548
7.520,53.4688
7.530,61.7463
7.540,52.8327
7.550,58.2585
7.560,52.6366
7.570,60.3042
7.580,55.2691
7.590,57.6453
7.600,61.8997
7.610,55.8808
7.620,58.2394
7.630,58.7653
7.640,53.7731
7.650,56.1634
7.660,56.3517
7.670,54.9683
7.680,60.3213
7.690,60.4967
7.700,56.1197
7.710,60.9975
7.720,56.2466
7.730,59.9752
7.740,56.8885
7.750,52.6652
7.760,51.6833
7.770,49.9464
7.780,54.7444
7.790,59.6043
7.800,56.1537
7.810,52.2648
7.820,58.3871
7.830,52.6999
7.840,48.5789
7.850,53.5360
7.860,55.4820
7.870,53.4880
7.880,51.6320
7.890,54.3078
7.900,51.6476
7.910,48.0929
7.920,48.0585
7.930,54.5670
7.940,50.3917
7.950,54.9411
7.960,52.9155
7.970,50.2193
7.980,52.5419
7.990,54.8599
8.000,53.5397
8.010,51.8785
8.020,54.3566
8.030,55.7418
8.040,50.6636
8.050,50.3733
8.060,51.6099
8.070,49.6883
8.080,47.9625
8.090,51.4121
8.100,50.0544
8.110,50.9207
8.120,51.2537
8.130,50.6477
8.140,54.0409
8.150,45.4391
8.160,45.8865
8.170,51.3645
8.180,51.7004
8.190,45.5557
8.200,52.3875
8.210,47.6547
8.220,46.8962
8.230,45.2696
8.240,49.4794
8.250,54.0663
8.260,51.9869
8.270,51.9816
8.280,49.6800
8.290,46.8862
8.300,51.9815
8.310,48.3532
8.320,52.7252
8.330,44.6572
8.340,52.9005
8.350,46.7767
8.360,52.2794
8.370,49.4653
8.380,47.5180
8.390,46.2904
8.400,54.9977
8.410,46.7008
8.420,53.4616
8.430,52.6294
8.440,48.1566
8.450,55.6720
8.460,50.1118
8.470,56.9023
8.480,49.8959
8.490,56.3497
8.500,53.3184
8.510,56.5609
8.520,55.1209
8.530,48.5885
8.540,53.0884
8.550,50.6674
8.560,54.7021
8.570,55.3800
8.580,57.1970
8.590,50.8116
8.600,50.7224
8.610,59.3034
8.620,54.1488
8.630,51.3332
8.640,57.2526
8.650,57.4643
8.660,54.7263
8.670,57.4696
8.680,51.9884
8.690,55.7511
8.700,57.7494
8.710,52.0250
8.720,56.1748
8.730,57.8300
8.740,57.1577
8.750,58.3133
8.760,60.5792
8.770,58.5490
8.780,59.5309
8.790,54.7419
8.800,60.3880
8.810,56.9395
8.820,60.5561
8.830,54.0487
8.840,53.3784
8.850,54.9458
8.860,59.1751
8.870,54.3280
8.880,53.4954
8.890,59.7826
8.900,55.8382
8.910,59.2274
8.920,53.0664
8.930,62.1915
8.940,53.9087
8.950,60.5630
8.960,57.7149
8.970,54.4886
8.980,56.2143
8.990,58.0424
9.000,55.3234
9.010,55.4170
9.020,58.5117
9.030,58.2886
9.040,62.0514
9.050,56.9788
9.060,52.4029
9.070,56.2648
9.080,61.3694
9.090,57.6890
9.100,60.0052
9.110,54.8166
9.120,58.9332
9.130,53.9425
9.140,53.8068
9.150,55.8626
9.160,59.3120
9.170,55.7789
9.180,55.3125
9.190,52.9571
9.200,51.2558
9.210,58.9114
9.220,50.4869
9.230,56.9567
9.240,54.3148
9.250,52.6829
9.260,58.1302
9.270,49.0286
9.280,56.0727
9.290,49.1308
9.300,54.2706
9.310,53.1984
9.320,51.0332
9.330,51.6652
9.340,49.3464
9.350,49.0333
9.360,49.8771
9.370,50.6090
9.380,47.7653
9.390,55.5080
9.400,52.1929
9.410,54.2964
9.420,51.0984
9.430,50.8551
9.440,54.8699
9.450,52.5479
9.460,53.6264
9.470,45.6564
9.480,47.0301
9.490,49.9229
9.500,53.7602
9.510,54.6680
9.520,53.2983
9.530,45.0275
9.540,55.0969
9.550,52.6561
9.560,54.0573
9.570,51.5707
9.580,48.9116
9.590,47.9176
9.600,52.8720
9.610,45.6142
9.620,54.7343
9.630,54.4605
9.640,51.5252
9.650,54.7109
9.660,44.4491
9.670,49.2418
9.680,47.2556
9.690,46.1255
9.700,51.1873
9.710,48.3144
9.720,45.5558
9.730,50.2562
9.740,45.6687
9.750,47.3048
9.760,49.5985
9.770,53.0396
9.780,50.1534
9.790,51.0819
9.800,48.7388
9.810,55.4280
9.820,46.2462
9.830,47.3285
9.840,48.6869
9.850,49.1197
9.860,52.3449
9.870,52.9469
9.880,47.9939
9.890,55.6478
9.900,52.0544
9.910,47.7020
9.920,51.4889
9.930,47.8130
9.940,48.1018
9.950,55.1978
9.960,48.2803
9.970,55.3597
9.980,49.8092
9.990,53.9198
10.000,57.9895
10.010,51.8982
10.020,57.1396
10.030,49.8908
10.040,51.2335
10.050,50.1234
10.060,57.7983
10.070,53.2619
10.080,59.9719
10.090,52.6791
10.100,50.6970
10.110,59.0663
10.120,57.5043
10.130,56.2223
10.140,59.7818
10.150,57.0589
10.160,58.1910
10.170,54.3604
10.180,61.5932
10.190,55.0360
10.200,58.5915
10.210,60.9732
10.220,53.2046
10.230,61.2352
10.240,55.1819
10.250,62.5414
10.260,60.1691
10.270,53.9663
10.280,56.7396
10.290,61.4552
10.300,61.0542
10.310,58.7141
10.320,58.8102
10.330,53.0817
10.340,55.3766
10.350,58.0798
10.360,53.3537
10.370,58.7126
10.380,56.1056
10.390,55.1593
10.400,57.8398
10.410,61.8421
10.420,58.5976
10.430,56.3841
10.440,58.6778
10.450,57.3400
10.460,55.3901
10.470,56.8619
10.480,58.2059
10.490,54.0467
10.500,60.0871
10.510,57.6109
10.520,61.4771
10.530,55.8958
10.540,60.5809
10.550,53.8543
10.560,51.6595
10.570,61.0326
10.580,57.3239
10.590,54.5403
10.600,51.1740
10.610,56.7107
10.620,51.5796
10.630,56.7273
10.640,50.2915
10.650,59.6675
10.660,57.0661
10.670,54.5070
10.680,49.4888
10.690,50.7822
10.700,58.0458
10.710,49.0643
10.720,49.8120
10.730,53.8472
10.740,53.1205
10.750,49.4837
10.760,57.9061
10.770,52.9265
10.780,55.8445
10.790,50.1131
10.800,51.3533
10.810,47.0308
10.820,47.3929
10.830,48.3790
10.840,48.6731
10.850,46.6685
10.860,55.7430
10.870,56.3898
10.880,55.2718
10.890,48.8933
10.900,51.2932
10.910,54.4596
10.920,50.6742
10.930,45.5524
10.940,53.9390
10.950,52.9337
10.960,55.1802
10.970,46.1451
10.980,51.3153
10.990,49.5385
11.000,45.8962
11.010,53.5455
11.020,48.7677
11.030,49.0330
11.040,54.0245
11.050,54.8654
11.060,53.2190
11.070,45.4289
11.080,49.2101
11.090,44.8129
11.100,44.8157
11.110,47.4747
11.120,50.7334
11.130,52.2988
11.140,44.8218
11.150,50.7979
11.160,44.9321
11.170,50.7984
11.180,46.2951
11.190,46.9182
11.200,45.9508
11.210,45.9036
11.220,52.9084
11.230,50.2195
11.240,49.7805
11.250,47.8902
11.260,51.2262
11.270,51.2115
11.280,47.9840
11.290,55.8686
11.300,54.8884
11.310,48.2384
11.320,56.7648
11.330,54.5049
11.340,57.1616
11.350,57.7465
11.360,49.0580
11.370,57.7413
11.380,51.5793
11.390,50.8259
11.400,53.3699
11.410,52.4079
11.420,57.4061
11.430,52.3674
11.440,52.6105
11.450,55.1793
11.460,50.3088
11.470,59.4079
11.480,56.9920
11.490,53.4527
11.500,51.0292
11.510,59.8929
11.520,56.0074
11.530,52.8735
11.540,57.4764
11.550,59.8516
11.560,54.7788
11.570,59.8773
11.580,55.0796
11.590,60.3556
11.600,52.5994
11.610,52.6869
11.620,60.6600
11.630,57.3773
11.640,59.4758
11.650,58.4856
11.660,56.7866
11.670,57.8076
11.680,59.6527
11.690,56.5999
11.700,59.5222
11.710,62.5645
11.720,55.2448
11.730,61.6074
11.740,59.6415
11.750,56.0622
11.760,54.3901
11.770,63.3092
11.780,53.3933
11.790,54.3617
11.800,62.7604
11.810,58.4198
11.820,55.2154
11.830,56.7144
11.840,56.4258
11.850,62.5664
11.860,52.9758
11.870,54.4028
11.880,54.3235
11.890,53.6658
11.900,58.7642
11.910,55.6432
11.920,53.7132
11.930,60.9127
11.940,61.3137
11.950,61.5221
11.960,57.5150
11.970,57.2883
11.980,53.9746
11.990,53.2103
12.000,60.8294
12.010,59.2931
12.020,57.1811
12.030,55.3757
12.040,60.3383
12.050,59.3876
12.060,59.0035
12.070,54.0914
12.080,55.4271
12.090,50.5379
12.100,54.9661
12.110,49.9837
12.120,55.7976
12.130,54.1670
12.140,49.6572
12.150,58.2095
12.160,53.6069
12.170,50.4929
12.180,55.2111
12.190,52.2581
12.200,55.5011
12.210,55.8219
12.220,50.4671
12.230,50.8324
12.240,54.6622
12.250,48.1857
12.260,54.2577
12.270,50.5812
12.280,51.4851
12.290,48.4514
12.300,52.7000
12.310,49.1118
12.320,55.8580
12.330,50.3981
12.340,55.7320
12.350,50.2335
12.360,52.5996
12.370,47.8030
12.380,45.4036
12.390,50.6120
12.400,53.4636
12.410,51.1534
12.420,51.2850
12.430,47.8243
12.440,46.9976
12.450,53.7835
12.460,47.5310
12.470,54.1635
12.480,55.2065
12.490,45.4917
12.500,48.8858
12.510,45.6781
12.520,50.9421
12.530,54.0107
12.540,49.9494
12.550,54.4709
12.560,46.0364
12.570,47.5183
12.580,54.2855
12.590,53.6675
12.600,55.4491
12.610,50.3070
12.620,50.1597
12.630,50.8860
12.640,52.3522
12.650,47.1781
12.660,51.8035
12.670,51.3511
12.680,46.4470
12.690,56.3136
12.700,56.2557
12.710,50.3389
12.720,56.6635
12.730,48.4120
12.740,54.0368
12.750,56.9218
12.760,48.1192
12.770,55.2643
12.780,58.0742
12.790,51.2630
12.800,51.7238
12.810,51.3725
12.820,55.7081
12.830,56.4008
12.840,53.9438
12.850,51.7004
12.860,53.0824
12.870,54.7254
12.880,59.6685
12.890,53.1645
12.900,51.2881
12.910,60.0097
12.920,56.5588
12.930,57.0727
12.940,57.7839
12.950,55.0741
12.960,58.7394
12.970,55.5436
12.980,58.1808
12.990,55.9288
13.000,61.8252
13.010,53.0009
13.020,56.6953
13.030,52.3898
13.040,52.7836
13.050,54.2587
13.060,58.8662
13.070,57.3575
13.080,56.9970
13.090,61.7811
13.100,57.0759
13.110,56.0370
13.120,58.8339
13.130,61.8837
13.140,62.9308
13.150,59.7971
13.160,60.5676
13.170,53.2511
13.180,55.6423
13.190,57.6685
13.200,57.5691
13.210,61.3843
13.220,56.8770
13.230,55.6800
13.240,59.6897
13.250,54.7237
13.260,53.6317
13.270,55.6960
13.280,58.7948
13.290,54.0991
13.300,54.8856
13.310,61.9700
13.320,59.9444
13.330,54.7290
13.340,62.7456
13.350,61.8744
13.360,57.1419
13.370,61.4514
13.380,53.7690
13.390,55.6157
13.400,59.1100
13.410,56.5476
13.420,59.1567
13.430,61.5386
13.440,51.7573
13.450,53.3544
13.460,53.0992
13.470,51.3052
13.480,55.0593
13.490,59.6109
13.500,57.1444
13.510,60.5126
13.520,55.6675
13.530,55.1992
13.540,52.6552
13.550,51.0520
13.560,55.2271
13.570,58.6623
13.580,49.9839
13.590,57.9802
13.600,49.4147
13.610,55.2280
13.620,53.8193
13.630,49.9912
13.640,51.8285
13.650,50.4619
13.660,56.0422
13.670,47.6907
13.680,51.5738
13.690,52.2754
13.700,52.8475
13.710,55.0169
13.720,47.5759
13.730,49.1019
13.740,47.5749
13.750,55.7049
13.760,54.6895
13.770,56.2631
13.780,56.0450
13.790,49.4114
13.800,53.6641
13.810,49.6761
13.820,48.8003
13.830,50.5093
13.840,54.3217
13.850,51.0883
13.860,53.3741
13.870,45.4152
13.880,53.8638
13.890,53.2487
13.900,45.2999
13.910,51.7983
13.920,47.6110
13.930,47.1007
13.940,45.1448
13.950,53.7277
13.960,52.1783
13.970,53.6441
13.980,51.2225
13.990,47.4660
14.000,47.4049
14.010,48.5356
14.020,48.6406
14.030,46.5399
14.040,46.8293
14.050,55.0800
14.060,56.1240
14.070,53.1942
14.080,51.0530
14.090,49.6022
14.100,55.7328
14.110,47.1573
14.120,50.7281
14.130,55.9879
14.140,53.9764
14.150,55.4295
14.160,55.1760
14.170,57.0130
14.180,57.3676
14.190,56.5678
14.200,51.7732
14.210,53.4415
14.220,54.8718
14.230,50.0533
14.240,49.0115
14.250,56.0772
14.260,53.2907
14.270,53.2921
14.280,51.8420
14.290,56.2215
14.300,50.8042
14.310,58.6091
14.320,56.9154
14.330,59.3913
14.340,58.8639
14.350,51.2588
14.360,60.3903
14.370,52.8622
14.380,58.3853
14.390,54.3788
14.400,53.8904
14.410,54.9739
14.420,61.4386
14.430,60.7618
14.440,60.5378
14.450,57.3988
14.460,56.9989
14.470,57.4280
14.480,58.8363
14.490,61.8558
14.500,60.6110
14.510,56.5365
14.520,59.7615
14.530,59.3151
14.540,59.5396
14.550,58.7864
14.560,62.9439
14.570,57.7502
14.580,56.4218
14.590,57.9882
14.600,59.5340
14.610,59.7735
14.620,56.1895
14.630,61.9678
14.640,60.2898
14.650,61.2724
14.660,56.9062
14.670,60.6886
14.680,60.9794
14.690,62.5636
14.700,59.7461
14.710,59.9837
14.720,56.8270
14.730,63.5139
14.740,53.5030
14.750,55.5941
14.760,61.0492
14.770,62.2500
14.780,61.0588
14.790,53.8217
14.800,62.8679
14.810,57.3131
14.820,61.5545
14.830,60.0425
14.840,58.1862
14.850,58.5110
14.860,60.9844
14.870,55.5189
14.880,52.3262
14.890,58.5649
14.900,53.7387
14.910,59.8828
14.920,54.8878
14.930,54.1976
14.940,53.2277
14.950,54.7297
14.960,51.9179
14.970,54.3654
14.980,58.9547
14.990,49.8093
15.000,53.7416
15.010,60.0480
15.020,53.6341
15.030,54.6676
15.040,62.1375
15.050,54.4951
15.060,60.5951
15.070,65.1492
15.080,57.9921
15.090,66.9819
15.100,63.6314
15.110,68.2997
15.120,66.4316
15.130,66.4191
15.140,62.5600
15.150,70.5821
15.160,69.0799
15.170,63.4728
15.180,69.5184
15.190,70.1814
15.200,68.7434
15.210,75.5224
15.220,73.9073
15.230,72.6819
15.240,69.6926
15.250,72.8982
15.260,79.6180
15.270,78.2295
15.280,81.1048
15.290,78.6094
15.300,78.0586
15.310,74.9930
15.320,85.7139
15.330,79.6794
15.340,78.8084
15.350,82.1610
15.360,88.1090
15.370,85.2303
15.380,83.8965
15.390,86.1189
15.400,90.9911
15.410,91.9895
15.420,88.1583
15.430,93.1487
15.440,94.5245
15.450,88.7358
15.460,95.7473
15.470,89.7858
15.480,95.4062
15.490,95.4355
15.500,98.3811
15.510,101.3610
15.520,98.7380
15.530,98.6734
15.540,94.6900
15.550,100.1865
15.560,96.4489
15.570,98.0824
15.580,99.6136
15.590,102.8326
15.600,103.8705
15.610,107.3651
15.620,103.1982
15.630,109.5385
15.640,105.2985
15.650,106.7638
15.660,114.1143
15.670,108.1042
15.680,111.8946
15.690,116.0209
15.700,115.2530
15.710,109.9847
15.720,118.1968
15.730,116.1585
15.740,115.6828
15.750,115.5399
15.760,121.4276
15.770,121.5641
15.780,121.3739
15.790,115.9240
15.800,116.5836
15.810,118.0877
15.820,119.9305
15.830,119.8062
15.840,122.5255
15.850,124.8629
15.860,125.3742
15.870,122.7151
15.880,126.1785
15.890,130.1050
15.900,133.6449
15.910,132.1676
15.920,131.2477
15.930,127.1584
15.940,133.5200
15.950,130.1968
15.960,138.9052
15.970,130.8858
15.980,133.8401
15.990,135.4190
16.000,136.6267
16.010,141.8515
16.020,140.8584
16.030,133.4456
16.040,133.7006
16.050,132.0850
16.060,139.0987
16.070,137.2731
16.080,137.5271
16.090,139.7346
16.100,132.0966
16.110,135.5136
16.120,135.5488
16.130,137.4195
16.140,137.3124
16.150,136.3673
16.160,140.9861
16.170,138.2425
16.180,137.1166
16.190,139.6806
16.200,135.3000
16.210,133.0332
16.220,138.7074
16.230,132.3373
16.240,140.0599
16.250,138.5318
16.260,136.7752
16.270,134.9871
16.280,134.2195
16.290,132.1670
16.300,132.1339
16.310,139.5946
16.320,133.9328
16.330,141.7291
16.340,141.0088
16.350,139.3822
16.360,137.5196
16.370,133.9481
16.380,138.9681
16.390,132.4119
16.400,138.2473
16.410,141.0241
16.420,141.3248
16.430,135.4254
16.440,137.6297
16.450,142.0837
16.460,133.8258
16.470,134.6457
16.480,139.9125
16.490,140.2823
16.500,136.2638
16.510,140.5881
16.520,137.0199
16.530,141.6629
16.540,140.6676
16.550,137.1633
16.560,136.6955
16.570,142.0599
16.580,142.0050
16.590,138.0743
16.600,137.1590
16.610,137.9475
16.620,137.1537
16.630,132.6812
16.640,132.6043
16.650,136.3417
16.660,132.6326
16.670,138.8078
16.680,142.2828
16.690,132.9907
16.700,133.3844
16.710,141.9729
16.720,134.7737
16.730,136.0448
16.740,134.2501
16.750,138.7339
16.760,140.8469
16.770,132.7013
16.780,132.2921
16.790,135.2975
16.800,140.0416
16.810,141.6856
16.820,132.3043
16.830,137.5271
16.840,139.4047
16.850,135.8660
16.860,132.4424
16.870,142.0457
16.880,136.6912
16.890,139.0708
16.900,135.3774
16.910,142.5191
16.920,132.3519
16.930,140.3279
16.940,142.2429
16.950,133.6543
16.960,133.0574
16.970,140.3108
16.980,137.4173
16.990,140.8064
17.000,52.6127
17.010,51.1477
17.020,57.1109
17.030,49.1345
17.040,54.3668
17.050,54.7513
17.060,48.9669
17.070,56.9427
17.080,57.9041
17.090,58.0326
17.100,55.1940
17.110,52.7533
17.120,57.4865
17.130,50.0771
17.140,53.5171
17.150,51.5077
17.160,59.4397
17.170,51.4753
17.180,53.8452
17.190,54.9730
17.200,54.7987
17.210,56.3655
17.220,60.7342
17.230,51.5181
17.240,55.9472
17.250,54.3911
17.260,55.3534
17.270,58.8128
17.280,52.2863
17.290,54.2401
17.300,59.0185
17.310,56.4040
17.320,53.2014
17.330,56.2724
17.340,59.0114
17.350,53.6984
17.360,55.7230
17.370,57.4435
17.380,53.6593
17.390,63.7567
17.400,63.1784
17.410,59.4731
17.420,56.6142
17.430,58.4754
17.440,59.5476
17.450,59.1010
17.460,60.1439
17.470,56.9816
17.480,61.3680
17.490,54.8424
17.500,59.2926
17.510,61.9270
17.520,62.7544
17.530,53.9977
17.540,55.9328
17.550,62.7367
17.560,55.0265
17.570,57.7205
17.580,59.2732
17.590,62.2739
17.600,57.1039
17.610,63.0462
17.620,59.7137
17.630,53.6937
17.640,62.4614
17.650,55.4058
17.660,63.4427
17.670,61.1796
17.680,59.5630
17.690,52.7655
17.700,60.7893
17.710,56.1152
17.720,61.9311
17.730,61.5355
17.740,60.2913
17.750,57.4573
17.760,58.2010
17.770,53.8645
17.780,53.3603
17.790,58.8073
17.800,53.5870
17.810,60.6397
17.820,60.0232
17.830,59.5310
17.840,58.9137
17.850,59.8473
17.860,54.6838
17.870,56.0170
17.880,57.8099
17.890,55.0246
17.900,54.5111
17.910,52.0548
17.920,54.4118
17.930,53.8559
17.940,55.1033
17.950,58.0352
17.960,57.8483
17.970,48.9599
17.980,52.2264
17.990,50.8281
18.000,57.6218
18.010,49.5969
18.020,56.4004
18.030,56.0467
18.040,53.8650
18.050,53.6612
18.060,48.8750
18.070,49.8892
18.080,46.6300
18.090,54.4903
18.100,50.2984
18.110,47.9976
18.120,47.0152
18.130,50.4687
18.140,53.9167
18.150,50.5284
18.160,52.0469
18.170,55.5908
18.180,54.7355
18.190,51.5185
18.200,54.3029
18.210,49.3469
18.220,46.1172
18.230,46.3178
18.240,51.4131
18.250,53.0859
18.260,54.1050
18.270,49.8889
18.280,55.3611
18.290,54.2155
18.300,53.4507
18.310,52.4253
18.320,50.3618
18.330,48.5847
18.340,50.1142
18.350,47.1778
18.360,54.1565
18.370,51.2920
18.380,54.0024
18.390,53.6224
18.400,54.3505
18.410,49.5693
18.420,49.1676
18.430,55.5116
18.440,51.2922
18.450,56.7396
18.460,54.9299
18.470,56.4751
18.480,57.9078
18.490,49.8946
18.500,57.5806
18.510,49.4967
18.520,57.5625
18.530,53.8856
18.540,59.2256
18.550,56.9230
18.560,52.4266
18.570,52.7028
18.580,60.4009
18.590,53.7785
18.600,50.8004
18.610,52.7159
18.620,51.7954
18.630,59.4892
18.640,52.0345
18.650,52.1110
18.660,58.5688
18.670,56.3577
18.680,56.5610
18.690,55.9824
18.700,53.9715
18.710,56.2619
18.720,57.4062
18.730,58.0405
18.740,59.5256
18.750,53.5964
18.760,63.2113
18.770,60.2723
18.780,54.2477
18.790,58.1205
18.800,55.1176
18.810,56.7744
18.820,61.7018
18.830,57.1908
18.840,59.3300
18.850,60.7877
18.860,60.8508
18.870,59.9566
18.880,59.6877
18.890,61.7357
18.900,55.3139
18.910,56.2432
18.920,56.5310
18.930,59.2672
18.940,58.7042
18.950,63.3755
18.960,56.7634
18.970,62.9882
18.980,57.3681
18.990,58.3528
19.000,64.2311
19.010,61.5431
19.020,54.5403
19.030,57.3515
19.040,55.5620
19.050,54.5531
19.060,63.5172
19.070,59.0000
19.080,54.4949
19.090,58.4526
19.100,61.2442
19.110,55.1834
19.120,58.9211
19.130,61.4814
19.140,52.8038
19.150,56.2994
19.160,58.0913
19.170,56.6041
19.180,58.0290
19.190,54.4909
19.200,54.9938
19.210,51.9848
19.220,55.8150
19.230,54.5250
19.240,59.8760
19.250,54.3186
19.260,52.5267
19.270,60.5311
19.280,60.5922
19.290,58.9813
19.300,55.2035
19.310,50.2285
19.320,51.7845
19.330,56.2325
19.340,59.5228
19.350,50.9466
19.360,53.8452
19.370,53.0299
19.380,57.8997
19.390,52.9708
19.400,56.6872
19.410,57.6085
19.420,49.7485
19.430,48.9738
19.440,48.5175
19.450,48.5536
19.460,48.6688
19.470,53.0503
19.480,50.1916
19.490,50.0017
19.500,48.6881
19.510,56.8426
19.520,48.5428
19.530,51.2426
19.540,53.7053
19.550,51.5958
19.560,56.5485
19.570,55.2172
19.580,46.7732
19.590,54.8593
19.600,54.3384
19.610,46.3414
19.620,47.0865
19.630,46.1490
19.640,50.6828
19.650,46.6047
19.660,51.5834
19.670,52.5336
19.680,49.5884
19.690,53.1359
19.700,53.1011
19.710,50.0343
19.720,55.0948
19.730,55.6919
19.740,54.1131
19.750,49.6152
19.760,55.8494
19.770,52.0803
19.780,50.1946
19.790,51.9856
19.800,47.1017
19.810,56.4695
19.820,50.1622
19.830,49.8384
19.840,52.1480
19.850,52.1493
19.860,56.1973
19.870,49.4941
19.880,58.0616
19.890,53.7264
19.900,51.4203
19.910,51.2944
19.920,56.5002
19.930,53.6933
19.940,59.3530
19.950,57.9422
19.960,51.3355
19.970,56.9876
19.980,54.6640
19.990,54.0648
20.000,59.5116
20.010,55.9215
20.020,55.9642
20.030,57.5130
20.040,51.8765
20.050,51.3506
20.060,59.8378
20.070,58.7851
20.080,60.4588
20.090,60.9746
20.100,58.7539
20.110,61.3072
20.120,58.1481
20.130,59.9180
20.140,56.0533
20.150,56.7950
20.160,55.8426
20.170,60.0823
20.180,56.6772
20.190,58.2042
20.200,55.6357
20.210,62.6461
20.220,58.0725
20.230,58.1460
20.240,62.5448
20.250,55.5186
20.260,54.5048
20.270,62.1984
20.280,64.3143
20.290,62.7621
20.300,54.7226
20.310,63.5389
20.320,58.2323
20.330,60.4177
20.340,62.8272
20.350,64.5600
20.360,61.7059
20.370,55.9099
20.380,64.2442
20.390,54.9901
20.400,57.1918
20.410,61.8896
20.420,60.0072
20.430,57.2416
20.440,64.3839
20.450,55.9693
20.460,55.4920
20.470,63.1865
20.480,56.8461
20.490,63.7870
20.500,59.9264
20.510,59.7012
20.520,54.8302
20.530,63.6742
20.540,60.2198
20.550,61.7612
20.560,55.8275
20.570,53.1355
20.580,58.3907
20.590,58.1646
20.600,58.4392
20.610,61.1273
20.620,61.4838
20.630,59.6654
20.640,60.1685
20.650,61.2612
20.660,57.0617
20.670,53.8092
20.680,52.4521
20.690,50.9717
20.700,59.5866
20.710,57.2354
20.720,58.7215
20.730,51.8316
20.740,58.0848
20.750,52.9323
20.760,52.3994
20.770,57.4951
20.780,55.9413
20.790,49.6576
20.800,51.0023
20.810,57.1383
20.820,48.7766
20.830,57.5586
20.840,51.5105
20.850,56.0057
20.860,52.2529
20.870,49.7607
20.880,49.2938
20.890,52.6226
20.900,47.9868
20.910,56.7930
20.920,55.3489
20.930,56.1801
20.940,56.8474
20.950,55.1801
20.960,49.0876
20.970,53.6690
20.980,47.8744
20.990,49.1004
21.000,55.8427
21.010,47.2995
21.020,51.2501
21.030,52.5518
21.040,56.1412
21.050,53.2129
21.060,50.5417
21.070,49.6734
21.080,55.9006
21.090,47.3374
21.100,53.0195
21.110,54.3349
21.120,53.9564
21.130,54.7360
21.140,53.5416
21.150,50.3601
21.160,48.4175
21.170,48.2370
21.180,53.3006
21.190,48.6153
21.200,49.1587
21.210,52.8795
21.220,56.9669
21.230,49.0652
21.240,49.5255
21.250,51.1919
21.260,49.8519
21.270,53.1290
21.280,56.2891
21.290,56.5168
21.300,56.3402
21.310,57.8141
21.320,49.6741
21.330,51.2836
21.340,59.2950
21.350,52.1902
21.360,55.4306
21.370,49.5922
21.380,51.5000
21.390,58.8054
21.400,53.7358
21.410,53.2234
21.420,53.7328
21.430,53.4339
21.440,52.9744
21.450,58.6797
21.460,54.8464
21.470,53.6167
21.480,57.7576
21.490,56.9760
21.500,53.3481
21.510,53.0806
21.520,58.8557
21.530,53.9738
21.540,57.3012
21.550,55.7559
21.560,55.2792
21.570,55.0868
21.580,61.9861
21.590,59.5956
21.600,57.0919
21.610,55.1908
21.620,61.4231
21.630,61.5206
21.640,59.3836
21.650,57.1276
21.660,54.6902
21.670,62.7924
21.680,55.8128
21.690,59.2032
21.700,64.6113
21.710,57.0059
21.720,58.1712
21.730,63.9847
21.740,62.7182
21.750,59.4681
21.760,60.1659
21.770,61.6007
21.780,64.9758
21.790,56.0141
21.800,64.6249
21.810,59.8366
21.820,61.0025
21.830,55.3780
21.840,64.8587
21.850,57.9679
21.860,63.6840
21.870,56.4137
21.880,61.0454
21.890,57.7644
21.900,63.7569
21.910,54.8457
21.920,57.5652
21.930,55.0021
21.940,55.5492
21.950,55.2525
21.960,59.1089
21.970,54.1790
21.980,62.3102
21.990,58.3299
22.000,53.5811
22.010,57.2992
22.020,60.1040
22.030,55.8357
22.040,58.3312
22.050,53.7395
22.060,62.1387
22.070,62.2634
22.080,59.3283
22.090,60.4793
22.100,51.6804
22.110,51.2851
22.120,58.3231
22.130,59.3599
22.140,51.1160
22.150,53.3415
22.160,54.5923
22.170,50.9914
22.180,53.5150
22.190,56.5372
22.200,54.1768
22.210,53.3124
22.220,59.4405
22.230,56.1583
22.240,53.3105
22.250,48.9297
22.260,51.2512
22.270,50.2845
22.280,48.8804
22.290,49.0364
22.300,56.0778
22.310,57.8848
22.320,49.8175
22.330,49.1856
22.340,48.3199
22.350,54.4222
22.360,49.5626
22.370,49.3586
22.380,55.6730
22.390,49.8894
22.400,52.4511
22.410,48.9883
22.420,56.5601
22.430,47.8521
22.440,55.7037
22.450,51.3887
22.460,53.3722
22.470,54.4394
22.480,52.0773
22.490,51.2940
22.500,53.6672
22.510,52.5691
22.520,48.6494
22.530,54.1738
22.540,49.7816
22.550,47.9331
22.560,48.7818
22.570,48.1277
22.580,50.2300
22.590,54.1447
22.600,49.9974
22.610,48.8558
22.620,52.5362
22.630,55.5961
22.640,56.0187
22.650,53.2497
22.660,51.5572
22.670,56.0711
22.680,55.0443
22.690,55.6798
22.700,50.6702
22.710,51.4331
22.720,52.8327
22.730,53.5540
22.740,49.4941
22.750,58.4989
22.760,59.1771
22.770,51.0955
22.780,51.9235
22.790,49.6798
22.800,54.2483
22.810,59.5598
22.820,57.3180
22.830,53.9323
22.840,50.4884
22.850,59.7598
22.860,59.5265
22.870,52.8004
22.880,54.2296
22.890,52.3446
22.900,60.5566
22.910,61.3888
22.920,54.8172
22.930,61.2694
22.940,57.1518
22.950,55.1257
22.960,56.6256
22.970,59.5939
22.980,57.3364
22.990,60.1313
23.000,61.4086
23.010,56.0355
23.020,61.1833
23.030,60.1739
23.040,54.6228
23.050,63.4104
23.060,58.3359
23.070,64.3181
23.080,59.4828
23.090,55.9919
23.100,57.0722
23.110,62.0838
23.120,58.5913
23.130,56.7180
23.140,61.3949
23.150,63.8490
23.160,55.4665
23.170,59.7285
23.180,56.2060
23.190,55.7905
23.200,65.3767
23.210,57.5119
23.220,65.1803
23.230,60.5818
23.240,59.7010
23.250,57.7566
23.260,64.7056
23.270,57.2681
23.280,62.5850
23.290,63.8826
23.300,56.9636
23.310,57.3522
23.320,62.4894
23.330,57.3002
23.340,62.1512
23.350,56.8295
23.360,59.3768
23.370,55.8145
23.380,64.0881
23.390,57.9416
23.400,63.8018
23.410,60.4994
23.420,62.2571
23.430,54.6644
23.440,61.1743
23.450,60.5466
23.460,61.9123
23.470,52.7407
23.480,52.5266
23.490,58.8567
23.500,57.1920
23.510,58.2614
23.520,60.9986
23.530,53.9917
23.540,58.5442
23.550,54.8044
23.560,60.1309
23.570,59.3944
23.580,56.6090
23.590,53.1297
23.600,60.3591
23.610,58.0458
23.620,54.2992
23.630,53.7501
23.640,58.5177
23.650,51.0611
23.660,56.3215
23.670,55.1996
23.680,50.9138
23.690,56.5334
23.700,57.4589
23.710,53.5829
23.720,57.7041
23.730,48.3850
23.740,55.0038
23.750,53.3361
23.760,51.1749
23.770,55.7888
23.780,48.2252
23.790,49.7010
23.800,55.3211
23.810,48.6622
23.820,51.0825
23.830,48.0091
23.840,50.6683
23.850,54.2642
23.860,53.1536
23.870,55.1879
23.880,51.0910
23.890,47.7647
23.900,54.4712
23.910,55.1009
23.920,47.4783
23.930,50.6844
23.940,52.5747
23.950,51.7330
23.960,50.9421
23.970,50.8175
23.980,48.2852
23.990,53.7225
24.000,48.9559
24.010,54.5097
24.020,53.0891
24.030,51.5183
24.040,52.9136
24.050,51.6922
24.060,47.6468
24.070,57.0830
24.080,55.8643
24.090,49.7405
24.100,57.5653
24.110,51.3048
24.120,49.7348
24.130,52.2388
24.140,57.1233
24.150,49.0454
24.160,51.4688
24.170,55.0865
24.180,50.5251
24.190,56.9320
24.200,56.2037
24.210,56.0062
24.220,51.0083
24.230,58.5037
24.240,54.2720
24.250,51.4015
24.260,52.1950
24.270,52.6596
24.280,54.9493
24.290,54.0368
24.300,58.2621
24.310,58.1636
24.320,59.8807
24.330,61.9948
24.340,62.1149
24.350,53.1492
24.360,59.9210
24.370,60.3420
24.380,54.8667
24.390,61.4610
24.400,59.0737
24.410,53.9933
24.420,56.3049
24.430,57.6816
24.440,54.1126
24.450,56.2018
24.460,56.1597
24.470,56.9934
24.480,64.0383
24.490,59.7289
24.500,63.5359
24.510,62.4199
24.520,61.0020
24.530,60.0615
24.540,55.1314
24.550,60.9983
24.560,60.4733
24.570,56.8361
24.580,61.7649
24.590,57.6494
24.600,57.6702
24.610,58.1988
24.620,64.8424
24.630,64.0445
24.640,64.1015
24.650,65.5171
24.660,56.5253
24.670,58.8909
24.680,61.8158
24.690,65.2597
24.700,60.9026
24.710,61.1193
24.720,57.3344
24.730,62.8646
24.740,61.3360
24.750,56.5914
24.760,63.6776
24.770,63.2174
24.780,59.3194
24.790,62.5747
24.800,62.1429
24.810,56.2520
24.820,64.1496
24.830,55.2488
24.840,58.0050
24.850,57.4882
24.860,57.8570
24.870,58.5226
24.880,62.0615
24.890,54.8267
24.900,53.5163
24.910,60.6177
24.920,61.6711
24.930,54.5177
24.940,60.3549
24.950,59.2200
24.960,52.2552
24.970,52.0933
24.980,55.1020
24.990,57.2738
25.000,57.3738
25.010,53.2167
25.020,57.5110
25.030,57.9169
25.040,53.0383
25.050,53.6087
25.060,52.3113
25.070,58.0562
25.080,51.9964
25.090,55.6563
25.100,54.3813
25.110,58.9871
25.120,58.2229
25.130,53.6433
25.140,50.6087
25.150,55.4752
25.160,48.9619
25.170,56.4167
25.180,56.9044
25.190,51.8233
25.200,52.7108
25.210,53.9119
25.220,52.8098
25.230,56.2642
25.240,53.0482
25.250,47.6600
25.260,48.8819
25.270,51.6126
25.280,56.1186
25.290,55.9427
25.300,48.0384
25.310,57.3146
25.320,48.1995
25.330,53.0611
25.340,51.1136
25.350,48.4136
25.360,52.9861
25.370,53.6738
25.380,52.8976
25.390,50.7559
25.400,48.0390
25.410,56.9120
25.420,48.0537
25.430,54.4843
25.440,55.2173
25.450,56.9743
25.460,50.8801
25.470,49.7550
25.480,51.4791
25.490,56.6086
25.500,57.8473
25.510,53.4632
25.520,50.7084
25.530,49.7559
25.540,54.4914
25.550,58.5882
25.560,53.9235
25.570,51.8629
25.580,58.7164
25.590,53.7255
25.600,52.6807
25.610,49.8589
25.620,54.4407
25.630,49.7981
25.640,50.6497
25.650,51.4684
25.660,54.7892
25.670,58.1336
25.680,55.4687
25.690,55.6544
25.700,60.1652
25.710,53.9384
25.720,58.7852
25.730,60.8119
25.740,52.2299
25.750,55.7141
25.760,53.4702
25.770,54.1244
25.780,62.0093
25.790,62.3282
25.800,56.1917
25.810,57.5166
25.820,60.5306
25.830,58.9143
25.840,62.6931
25.850,56.2287
25.860,61.9516
25.870,62.1570
25.880,58.2522
25.890,62.7548
25.900,57.7878
25.910,63.0165
25.920,55.8551
25.930,58.9596
25.940,63.9100
25.950,61.0830
25.960,56.5788
25.970,63.7602
25.980,63.6239
25.990,60.7683
26.000,58.2375
26.010,56.7476
26.020,61.6705
26.030,65.0895
26.040,64.7437
26.050,58.6969
26.060,56.1468
26.070,61.7947
26.080,58.7333
26.090,64.1521
26.100,60.3741
26.110,61.6915
26.120,56.5058
26.130,57.7842
26.140,60.4591
26.150,59.2705
26.160,59.6302
26.170,56.0974
26.180,65.4606
26.190,59.2247
26.200,62.0772
26.210,55.0338
26.220,60.1679
26.230,58.8436
26.240,55.8678
26.250,63.5141
26.260,56.4514
26.270,57.3484
26.280,58.9394
26.290,62.3336
26.300,59.2435
26.310,58.8150
26.320,59.6550
26.330,62.3062
26.340,62.3610
26.350,55.1754
26.360,60.3855
26.370,55.1464
26.380,58.7122
26.390,54.0734
26.400,55.1439
26.410,61.5238
26.420,57.2153
26.430,55.2986
26.440,58.3490
26.450,55.1632
26.460,54.0763
26.470,57.4427
26.480,50.6447
26.490,54.5993
26.500,59.7441
26.510,55.8201
26.520,57.7042
26.530,51.6313
26.540,59.8306
26.550,58.0176
26.560,52.9770
26.570,54.3071
26.580,51.0446
26.590,59.0177
26.600,54.5022
26.610,53.9373
26.620,50.1927
26.630,54.9226
26.640,51.9711
26.650,52.2371
26.660,51.7466
26.670,48.4724
26.680,57.2647
26.690,56.8790
26.700,51.0715
26.710,51.2477
26.720,54.7877
26.730,49.3713
26.740,52.0164
26.750,53.6500
26.760,56.2313
26.770,51.8549
26.780,52.6556
26.790,51.8520
26.800,55.3581
26.810,54.4982
26.820,50.2206
26.830,48.1213
26.840,56.8575
26.850,53.3036
26.860,57.2573
26.870,55.9080
26.880,54.3929
26.890,50.0101
26.900,54.4058
26.910,55.6174
26.920,50.7181
26.930,54.5382
26.940,48.5974
26.950,55.6173
26.960,50.8746
26.970,51.7653
26.980,55.0916
26.990,53.0778
27.000,50.6495
27.010,52.6246
27.020,52.0726
27.030,54.7550
27.040,59.0962
27.050,59.7498
27.060,59.5198
27.070,50.4821
27.080,52.0062
27.090,60.0872
27.100,51.2410
27.110,52.8636
27.120,59.3156
27.130,53.0126
27.140,59.2686
27.150,53.4896
27.160,58.2774
27.170,54.7226
27.180,56.5440
27.190,61.1016
27.200,60.8841
27.210,59.2304
27.220,59.3910
27.230,63.4219
27.240,58.4356
27.250,57.2674
27.260,59.3421
27.270,54.9024
27.280,56.6401
27.290,60.2056
27.300,63.2832
27.310,55.5478
27.320,59.5338
27.330,58.2844
27.340,54.8705
27.350,62.0415
27.360,56.1401
27.370,57.8956
27.380,60.3059
27.390,62.2880
27.400,64.5172
27.410,57.4790
27.420,58.4275
27.430,56.2155
27.440,57.5266
27.450,61.4949
27.460,58.2124
27.470,64.3857
27.480,66.0744
27.490,60.5423
27.500,58.7536
27.510,63.7237
27.520,62.6080
27.530,63.7048
27.540,61.5237
27.550,65.8121
27.560,59.3399
27.570,64.5095
27.580,64.6867
27.590,63.8437
27.600,55.7743
27.610,59.8327
27.620,59.8095
27.630,64.9670
27.640,55.1605
27.650,59.7174
27.660,64.2166
27.670,56.8901
27.680,60.8912
27.690,55.8500
27.700,56.3908
27.710,63.0479
27.720,62.8324
27.730,59.6675
27.740,55.2529
27.750,60.9145
27.760,56.4657
27.770,61.6861
27.780,58.0790
27.790,54.2039
27.800,53.3835
27.810,56.0657
27.820,62.3873
27.830,59.7196
27.840,53.2471
27.850,53.1508
27.860,53.6234
27.870,60.7439
27.880,57.8397
27.890,53.3114
27.900,52.8474
27.910,57.4633
27.920,59.8141
27.930,57.1944
27.940,51.9044
27.950,51.4228
27.960,58.6682
27.970,51.3370
27.980,59.3244
27.990,56.8729
28.000,52.1639
28.010,50.5618
28.020,55.9369
28.030,53.0958
28.040,49.7959
28.050,53.1780
28.060,49.4259
28.070,56.7780
28.080,54.2980
28.090,50.6993
28.100,56.3016
28.110,57.5187
28.120,53.6695
28.130,48.6451
28.140,53.0219
28.150,54.6764
28.160,51.8069
28.170,56.5974
28.180,50.2336
28.190,55.2298
28.200,49.3414
28.210,54.1243
28.220,53.0166
28.230,48.3241
28.240,50.4096
28.250,57.8716
28.260,48.3806
28.270,52.6274
28.280,55.8631
28.290,50.4800
28.300,50.5195
28.310,54.8482
28.320,53.0739
28.330,50.1423
28.340,51.7748
28.350,49.3473
28.360,52.3184
28.370,54.4712
28.380,50.0057
28.390,49.5528
28.400,50.1162
28.410,49.9516
28.420,53.1402
28.430,49.8882
28.440,49.7834
28.450,53.4450
28.460,49.9195
28.470,51.9838
28.480,52.5374
28.490,51.4912
28.500,51.0303
28.510,52.6691
28.520,57.3551
28.530,59.4906
28.540,57.0258
28.550,56.5886
28.560,57.2993
28.570,55.3923
28.580,61.9671
28.590,54.0210
28.600,58.9087
28.610,59.0057
28.620,54.7377
28.630,61.7403
28.640,54.7460
28.650,57.6432
28.660,63.0576
28.670,63.0598
28.680,63.0895
28.690,62.6457
28.700,63.6444
28.710,63.4324
28.720,63.4708
28.730,60.5459
28.740,64.5429
28.750,62.1412
28.760,65.0683
28.770,55.9974
28.780,57.7553
28.790,55.8546
28.800,56.4005
28.810,63.6165
28.820,61.6464
28.830,62.6061
28.840,62.1012
28.850,60.0529
28.860,64.5959
28.870,62.4825
28.880,64.2748
28.890,57.5869
28.900,60.7843
28.910,65.5290
28.920,59.3929
28.930,57.5218
28.940,58.5281
28.950,58.7926
28.960,59.5100
28.970,58.0487
28.980,58.5900
28.990,58.5899
29.000,65.9735
29.010,63.2974
29.020,58.8566
29.030,63.6727
29.040,58.3286
29.050,60.9240
29.060,59.0602
29.070,57.5873
29.080,56.8862
29.090,58.7730
29.100,59.7392
29.110,59.3810
29.120,58.2606
29.130,55.0594
29.140,55.0767
29.150,60.2132
29.160,57.0290
29.170,62.0613
29.180,63.5203
29.190,55.9538
29.200,60.8483
29.210,58.0071
29.220,54.7118
29.230,62.2546
29.240,56.5842
29.250,53.0896
29.260,59.8427
29.270,53.2028
29.280,57.7081
29.290,54.4979
29.300,56.0070
29.310,51.9744
29.320,58.2749
29.330,60.7220
29.340,56.8151
29.350,53.8704
29.360,52.7063
29.370,51.6684
29.380,56.6953
29.390,54.7558
29.400,54.3293
29.410,57.5588
29.420,50.4457
29.430,56.5283
29.440,57.8412
29.450,54.1908
29.460,51.8996
29.470,55.1884
29.480,50.3550
29.490,50.2213
29.500,56.1605
29.510,49.5352
29.520,52.5973
29.530,55.1232
29.540,56.7835
29.550,54.3094
29.560,49.3111
29.570,54.7572
29.580,54.7596
29.590,56.7228
29.600,54.9784
29.610,50.3478
29.620,54.2033
29.630,54.1658
29.640,49.2527
29.650,54.6787
29.660,53.2159
29.670,52.8214
29.680,48.3656
29.690,56.2770
29.700,49.8833
29.710,56.5843
29.720,51.5743
29.730,50.0066
29.740,55.8427
29.750,54.5786
29.760,56.9695
29.770,56.0938
29.780,51.6091
29.790,55.1684
29.800,51.2752
29.810,50.7730
29.820,52.8921
29.830,51.3859
29.840,50.8273
29.850,50.9051
29.860,49.6288
29.870,51.5905
29.880,59.9932
29.890,51.8986
29.900,53.9533
29.910,59.4993
29.920,53.5164
29.930,52.8157
29.940,52.6909
29.950,53.5146
29.960,55.6575
29.970,53.1961
29.980,52.0905
29.990,61.1419
30.000,61.2611
30.010,60.9364
30.020,55.2450
30.030,57.4646
30.040,61.0228
30.050,58.5406
30.060,57.9221
30.070,61.8243
30.080,63.8087
30.090,62.0904
30.100,70.0319
30.110,66.3530
30.120,62.5323
30.130,68.6762
30.140,69.1004
30.150,73.8139
30.160,66.9232
30.170,75.5976
30.180,74.7046
30.190,71.2581
30.200,70.5916
30.210,79.4901
30.220,73.2022
30.230,74.9447
30.240,75.9707
30.250,74.2731
30.260,77.2758
30.270,81.6645
30.280,86.0128
30.290,84.1730
30.300,87.7589
30.310,82.8931
30.320,84.2203
30.330,84.3476
30.340,89.2657
30.350,88.0519
30.360,87.4329
30.370,91.3159
30.380,93.6780
30.390,92.1719
30.400,88.9357
30.410,91.4601
30.420,91.8959
30.430,93.0201
30.440,99.6235
30.450,93.6553
30.460,98.4912
30.470,98.7901
30.480,101.4634
30.490,102.3767
30.500,96.9755
30.510,102.2215
30.520,104.3987
30.530,107.9335
30.540,100.9907
30.550,104.0913
30.560,110.2573
30.570,109.6211
30.580,102.9568
30.590,108.1370
30.600,111.8899
30.610,108.8313
30.620,108.8754
30.630,109.8407
30.640,111.3548
30.650,113.2672
30.660,114.8043
30.670,112.9117
30.680,118.5549
30.690,117.3139
30.700,115.5778
30.710,117.8831
30.720,115.4401
30.730,116.9574
30.740,116.7341
30.750,119.4753
30.760,120.9670
30.770,118.8369
30.780,126.4270
30.790,124.9277
30.800,124.8081
30.810,129.4437
30.820,131.0359
30.830,132.4087
30.840,125.5188
30.850,130.0368
30.860,126.6196
30.870,129.8817
30.880,136.4599
30.890,138.4463
30.900,130.6013
30.910,134.6965
30.920,132.1127
30.930,139.2255
30.940,133.9472
30.950,143.2415
30.960,139.7149
30.970,139.6385
30.980,145.9169
30.990,138.3485
31.000,138.7109
31.010,145.9911
31.020,140.6426
31.030,144.1778
31.040,144.4701
31.050,148.0447
31.060,147.1785
31.070,144.7988
31.080,142.0831
31.090,142.0771
31.100,148.0156
31.110,147.2755
31.120,140.6423
31.130,146.6662
31.140,144.4069
31.150,145.1471
31.160,146.1996
31.170,140.0278
31.180,141.0868
31.190,140.0115
31.200,147.9371
31.210,147.6640
31.220,144.2252
31.230,148.2402
31.240,148.6034
31.250,144.3842
31.260,143.7003
31.270,140.0480
31.280,138.4184
31.290,141.5880
31.300,147.3620
31.310,145.7905
31.320,139.0835
31.330,141.0549
31.340,139.6455
31.350,139.0130
31.360,147.2463
31.370,142.2739
31.380,138.6008
31.390,141.7820
31.400,147.9989
31.410,145.2393
31.420,139.3562
31.430,146.0159
31.440,147.0463
31.450,141.9787
31.460,143.4597
31.470,142.5810
31.480,143.5801
31.490,145.0895
31.500,148.4370
31.510,143.2173
31.520,144.9995
31.530,147.1984
31.540,142.5499
31.550,139.0413
31.560,138.7262
31.570,141.6534
31.580,142.3428
31.590,147.3427
31.600,147.9893
31.610,147.4357
31.620,142.0470
31.630,145.6369
31.640,141.0350
31.650,141.4011
31.660,139.5395
31.670,144.9184
31.680,139.6862
31.690,143.9441
31.700,146.0802
31.710,144.3074
31.720,138.7686
31.730,147.3523
31.740,146.3844
31.750,144.0138
31.760,140.2324
31.770,147.5840
31.780,140.5226
31.790,140.3671
31.800,143.3353
31.810,142.5710
31.820,142.7761
31.830,144.4070
31.840,147.5714
31.850,147.9457
31.860,143.2984
31.870,146.7538
31.880,139.4122
31.890,143.4662
31.900,147.1252
31.910,143.6840
31.920,143.2333
31.930,143.6448
31.940,144.7574
31.950,141.7818
31.960,144.7276
31.970,143.4968
31.980,148.5376
31.990,142.5477
32.000,62.4957
32.010,57.9801
32.020,61.3345
32.030,61.8350
32.040,59.7915
32.050,58.9605
32.060,60.6826
32.070,57.5056
32.080,54.6493
32.090,55.3636
32.100,54.2284
32.110,61.4376
32.120,62.8633
32.130,57.8867
32.140,60.6324
32.150,53.7694
32.160,53.7918
32.170,59.9295
32.180,60.7351
32.190,54.8030
32.200,52.7908
32.210,53.5294
32.220,60.3746
32.230,51.4716
32.240,60.0668
32.250,51.0880
32.260,51.4171
32.270,53.9503
32.280,60.3316
32.290,59.4182
32.300,51.3524
32.310,53.4976
32.320,56.5309
32.330,49.9249
32.340,54.4392
32.350,50.0120
32.360,56.7174
32.370,57.2766
32.380,54.2249
32.390,49.4849
32.400,52.9684
32.410,48.6572
32.420,54.9060
32.430,53.1759
32.440,48.6271
32.450,55.6817
32.460,55.4801
32.470,50.5978
32.480,53.9956
32.490,52.6017
32.500,57.6534
32.510,54.8107
32.520,50.7281
32.530,48.8687
32.540,53.6357
32.550,57.2291
32.560,57.2887
32.570,56.8647
32.580,56.0248
32.590,58.1140
32.600,58.3120
32.610,51.6140
32.620,50.1479
32.630,55.5440
32.640,49.3046
32.650,53.5145
32.660,49.8316
32.670,50.0018
32.680,52.4987
32.690,50.1174
32.700,58.2309
32.710,52.2720
32.720,56.6042
32.730,52.1125
32.740,50.8780
32.750,59.0444
32.760,57.1630
32.770,59.1417
32.780,60.9653
32.790,61.3008
32.800,55.2104
32.810,59.8145
32.820,58.2931
32.830,56.0104
32.840,57.5706
32.850,54.9719
32.860,57.6549
32.870,58.9115
32.880,53.0696
32.890,54.8436
32.900,61.9046
32.910,55.3390
32.920,57.9989
32.930,55.8103
32.940,62.5179
32.950,54.8854
32.960,63.5045
32.970,56.2469
32.980,62.1475
32.990,60.6838
33.000,57.7607
33.010,57.4620
33.020,62.0543
33.030,58.5386
33.040,58.8279
33.050,64.6780
33.060,65.8832
33.070,61.1260
33.080,66.3355
33.090,61.4872
33.100,57.4814
33.110,63.2508
33.120,57.4872
33.130,61.5679
33.140,65.7426
33.150,65.9723
33.160,65.4927
33.170,63.0942
33.180,58.6200
33.190,63.1671
33.200,59.5771
33.210,64.7568
33.220,64.9823
33.230,59.5784
33.240,63.0370
33.250,63.6727
33.260,61.9575
33.270,64.2674
33.280,62.5099
33.290,59.0105
33.300,58.4064
33.310,63.5157
33.320,57.7516
33.330,66.1174
33.340,65.8550
33.350,59.3718
33.360,62.1087
33.370,58.9829
33.380,62.4545
33.390,65.1365
33.400,60.8200
33.410,58.8307
33.420,58.1901
33.430,56.2251
33.440,57.7106
33.450,60.9898
33.460,61.1726
33.470,64.1194
33.480,57.8611
33.490,55.1450
33.500,61.3876
33.510,60.5176
33.520,56.2482
33.530,62.3120
33.540,62.9870
33.550,57.6657
33.560,58.1225
33.570,59.9884
33.580,54.8648
33.590,59.6952
33.600,58.6599
33.610,59.4389
33.620,58.5035
33.630,57.2355
33.640,55.5714
33.650,59.2440
33.660,55.9233
33.670,53.9137
33.680,51.6744
33.690,58.0811
33.700,52.6816
33.710,56.0094
33.720,51.5358
33.730,55.1483
33.740,54.7378
33.750,52.8286
33.760,50.0413
33.770,53.0823
33.780,57.7785
33.790,57.2297
33.800,58.6651
33.810,50.1255
33.820,49.4940
33.830,56.3999
33.840,49.8346
33.850,58.2830
33.860,56.7856
33.870,51.4320
33.880,57.5461
33.890,49.0047
33.900,58.0779
33.910,56.1721
33.920,56.6973
33.930,56.0431
33.940,50.7273
33.950,51.2347
33.960,53.2578
33.970,54.0994
33.980,49.0126
33.990,49.4214
34.000,57.4514
34.010,58.9833
34.020,56.0928
34.030,49.2926
34.040,55.0384
34.050,51.5376
34.060,53.3030
34.070,55.1485
34.080,54.4680
34.090,59.3394
34.100,51.6306
34.110,54.7014
34.120,56.3852
34.130,59.6567
34.140,50.3431
34.150,58.7140
34.160,55.9401
34.170,55.5775
34.180,54.7967
34.190,56.7473
34.200,52.8609
34.210,58.2597
34.220,58.9541
34.230,55.0667
34.240,53.0723
34.250,52.6326
34.260,52.7280
34.270,62.4103
34.280,54.3705
34.290,57.7267
34.300,55.9100
34.310,57.1109
34.320,53.6558
34.330,59.7051
34.340,62.6891
34.350,63.4628
34.360,62.1848
34.370,56.8161
34.380,55.0562
34.390,57.1994
34.400,59.6581
34.410,55.6845
34.420,61.5567
34.430,61.1391
34.440,63.2829
34.450,62.1706
34.460,59.6726
34.470,58.3424
34.480,59.3453
34.490,66.0033
34.500,62.5325
34.510,64.1007
34.520,62.5117
34.530,56.5891
34.540,64.0124
34.550,66.0850
34.560,60.3927
34.570,59.7776
34.580,65.0916
34.590,60.3970
34.600,59.4012
34.610,66.5504
34.620,61.6551
34.630,64.7055
34.640,66.8769
34.650,64.7355
34.660,60.8823
34.670,57.7573
34.680,61.4380
34.690,67.2168
34.700,59.6330
34.710,66.3232
34.720,57.4496
34.730,59.2740
34.740,64.8883
34.750,63.8718
34.760,63.7531
34.770,60.8350
34.780,63.9351
34.790,64.4933
34.800,63.6737
34.810,60.3790
34.820,64.3365
34.830,64.1025
34.840,58.0500
34.850,59.4585
34.860,65.2564
34.870,59.3871
34.880,64.9033
34.890,56.0434
34.900,62.0364
34.910,64.2967
34.920,59.4691
34.930,57.5125
34.940,57.8991
34.950,62.3669
34.960,55.7973
34.970,57.4483
34.980,57.9283
34.990,56.3421
35.000,56.0346
35.010,56.6107
35.020,57.7242
35.030,56.3596
35.040,52.9759
35.050,60.7304
35.060,61.1596
35.070,61.4324
35.080,61.1590
35.090,55.6598
35.100,58.1568
35.110,60.3198
35.120,54.0852
35.130,53.2147
35.140,59.3756
35.150,54.1012
35.160,55.6758
35.170,53.6012
35.180,50.5344
35.190,50.7444
35.200,59.5103
35.210,58.5416
35.220,58.1294
35.230,57.5932
35.240,58.9887
35.250,50.6426
35.260,49.7515
35.270,52.9636
35.280,53.7691
35.290,55.7509
35.300,57.4806
35.310,49.4781
35.320,55.0038
35.330,49.5824
35.340,58.7909
35.350,52.4791
35.360,58.7336
35.370,56.8223
35.380,56.0092
35.390,57.2003
35.400,59.0133
35.410,52.1889
35.420,55.1439
35.430,49.7184
35.440,54.6288
35.450,50.4888
35.460,57.8707
35.470,58.7357
35.480,53.3631
35.490,59.0577
35.500,54.8729
35.510,57.6482
35.520,51.0425
35.530,51.4889
35.540,52.7278
35.550,52.4762
35.560,57.1914
35.570,59.8704
35.580,59.9249
35.590,57.5932
35.600,58.1580
35.610,58.1562
35.620,58.6068
35.630,54.8767
35.640,56.8871
35.650,56.6135
35.660,61.8888
35.670,53.4804
35.680,59.6842
35.690,61.1820
35.700,57.9162
35.710,56.7360
35.720,53.5303
35.730,55.2352
35.740,57.9167
35.750,55.9847
35.760,53.8397
35.770,59.8827
35.780,60.4612
35.790,54.4200
35.800,61.2226
35.810,58.3848
35.820,63.3486
35.830,64.7851
35.840,56.6759
35.850,63.7042
35.860,56.5267
35.870,63.9962
35.880,64.0985
35.890,64.9913
35.900,59.7780
35.910,65.7016
35.920,66.0324
35.930,61.5295
35.940,64.4055
35.950,60.3740
35.960,61.5682
35.970,66.8850
35.980,61.6626
35.990,63.3076
36.000,64.0815
36.010,66.8227
36.020,64.6684
36.030,65.0463
36.040,58.0025
36.050,61.6106
36.060,60.7693
36.070,66.5121
36.080,63.1442
36.090,62.2134
36.100,58.2974
36.110,67.2367
36.120,62.2223
36.130,58.9097
36.140,60.0257
36.150,60.8498
36.160,64.4883
36.170,63.1184
36.180,61.4740
36.190,57.6946
36.200,58.2300
36.210,62.1419
36.220,60.0546
36.230,64.4433
36.240,64.5761
36.250,63.2088
36.260,58.4218
36.270,58.7959
36.280,59.3149
36.290,63.0942
36.300,58.6841
36.310,61.5491
36.320,62.3075
36.330,65.2255
36.340,59.0453
36.350,57.7758
36.360,55.8929
36.370,61.2018
36.380,56.8558
36.390,59.9794
36.400,57.1406
36.410,63.2928
36.420,60.3263
36.430,60.5064
36.440,55.3622
36.450,60.3985
36.460,61.5958
36.470,59.8283
36.480,54.3468
36.490,53.2394
36.500,54.7185
36.510,56.1975
36.520,51.6895
36.530,60.3610
36.540,60.2473
36.550,57.8886
36.560,58.6141
36.570,51.3507
36.580,60.6289
36.590,55.1210
36.600,50.6673
36.610,58.6321
36.620,56.2378
36.630,57.5568
36.640,59.3053
36.650,53.1217
36.660,56.9956
36.670,56.4672
36.680,57.2360
36.690,54.8091
36.700,50.8242
36.710,53.3816
36.720,58.9767
36.730,50.1699
36.740,51.5763
36.750,58.0437
36.760,54.0346
36.770,54.5872
36.780,50.5948
36.790,54.2420
36.800,57.4082
36.810,53.7444
36.820,57.1488
36.830,55.4087
36.840,50.2124
36.850,53.1919
36.860,55.2546
36.870,49.9003
36.880,58.1470
36.890,50.6999
36.900,59.4664
36.910,58.7551
36.920,50.2328
36.930,51.3997
36.940,58.3855
36.950,57.2161
36.960,51.3346
36.970,60.1602
36.980,60.0791
36.990,61.0054
37.000,52.7961
37.010,55.3588
37.020,51.3341
37.030,58.3095
37.040,53.2227
37.050,54.0740
37.060,57.4270
37.070,57.8227
37.080,58.3952
37.090,54.4474
37.100,58.2371
37.110,56.5077
37.120,61.0108
37.130,54.4649
37.140,54.8656
37.150,63.0260
37.160,58.0618
37.170,55.3181
37.180,62.2113
37.190,61.4131
37.200,59.9890
37.210,62.3127
37.220,59.5312
37.230,61.9823
37.240,59.6220
37.250,55.5368
37.260,57.6371
37.270,63.4671
37.280,62.3819
37.290,56.8032
37.300,59.0900
37.310,62.3566
37.320,57.4391
37.330,63.1510
37.340,66.5739
37.350,64.0070
37.360,59.5895
37.370,59.2950
37.380,57.8964
37.390,65.3604
37.400,61.8927
37.410,62.2270
37.420,58.5010
37.430,66.0598
37.440,62.5327
37.450,58.8341
37.460,58.8449
37.470,63.5554
37.480,64.0369
37.490,66.2001
37.500,61.3082
37.510,60.6292
37.520,60.0985
37.530,66.5276
37.540,62.8407
37.550,58.2622
37.560,62.7786
37.570,67.3908
37.580,64.3768
37.590,62.5389
37.600,61.2972
37.610,66.2784
37.620,63.5546
37.630,59.5652
37.640,61.9723
37.650,66.2565
37.660,56.6654
37.670,58.4766
37.680,63.9596
37.690,64.4197
37.700,64.1801
37.710,63.0383
37.720,59.5518
37.730,62.8006
37.740,55.6725
37.750,64.1579
37.760,62.9896
37.770,62.7826
37.780,63.7726
37.790,59.2521
37.800,57.3292
37.810,56.8697
37.820,59.0345
37.830,57.5552
37.840,53.6901
37.850,59.2032
37.860,62.8311
37.870,54.6366
37.880,60.0401
37.890,57.8752
37.900,54.3507
37.910,60.8387
37.920,52.3557
37.930,55.8312
37.940,59.7040
37.950,55.8378
37.960,59.8120
37.970,55.6877
37.980,60.6806
37.990,58.4994
38.000,60.6562
38.010,51.2319
38.020,52.9961
38.030,54.2488
38.040,60.1205
38.050,55.0065
38.060,50.9745
38.070,59.2477
38.080,59.9728
38.090,58.8323
38.100,55.2489
38.110,54.4132
38.120,54.6542
38.130,56.8221
38.140,59.2608
38.150,49.7169
38.160,50.7290
38.170,59.3213
38.180,56.0020
38.190,54.6865
38.200,55.9945
38.210,53.7658
38.220,49.2653
38.230,59.0231
38.240,56.6575
38.250,55.6880
38.260,54.8335
38.270,55.9136
38.280,59.3856
38.290,52.9778
38.300,56.5506
38.310,55.0274
38.320,54.6767
38.330,55.0440
38.340,52.4742
38.350,54.0881
38.360,56.4469
38.370,51.9237
38.380,58.9073
38.390,50.4902
38.400,52.5870
38.410,55.1057
38.420,52.4168
38.430,57.8098
38.440,54.6165
38.450,52.6282
38.460,60.7732
38.470,54.8536
38.480,61.7642
38.490,62.1202
38.500,57.7710
38.510,54.0606
38.520,61.5355
38.530,55.3392
38.540,58.9890
38.550,61.6459
38.560,57.6024
38.570,53.8255
38.580,60.5498
38.590,58.8289
38.600,61.4422
38.610,59.5862
38.620,57.9502
38.630,60.8818
38.640,58.0554
38.650,65.0350
38.660,58.6480
38.670,60.5625
38.680,65.6082
38.690,58.3371
38.700,56.0103
38.710,57.7286
38.720,62.4292
38.730,61.5046
38.740,58.8653
38.750,61.5948
38.760,62.6206
38.770,58.1036
38.780,60.2636
38.790,64.0716
38.800,60.8839
38.810,64.7480
38.820,57.7348
38.830,58.2002
38.840,60.6039
38.850,61.7496
38.860,66.3984
38.870,66.2111
38.880,67.7971
38.890,59.6914
38.900,61.9672
38.910,65.3756
38.920,59.6653
38.930,63.7922
38.940,63.5668
38.950,63.9698
38.960,59.2900
38.970,67.4493
38.980,58.7904
38.990,60.3256
39.000,63.4444
39.010,59.1476
39.020,62.6369
39.030,64.8886
39.040,60.6269
39.050,63.8232
39.060,65.0583
39.070,61.0273
39.080,62.4794
39.090,57.6342
39.100,59.9745
39.110,60.4430
39.120,66.3766
39.130,57.6286
39.140,61.1791
39.150,60.3310
39.160,55.8891
39.170,60.3988
39.180,59.6881
39.190,59.4151
39.200,59.8534
39.210,58.9873
39.220,63.6476
39.230,55.0291
39.240,55.1197
39.250,61.1284
39.260,56.6179
39.270,54.3274
39.280,58.1250
39.290,56.9232
39.300,54.3189
39.310,55.4544
39.320,54.7046
39.330,55.8461
39.340,56.8849
39.350,60.3025
39.360,58.6545
39.370,53.2534
39.380,58.6348
39.390,59.6430
39.400,59.2829
39.410,59.5430
39.420,58.3157
39.430,60.6421
39.440,53.0131
39.450,54.3434
39.460,55.8619
39.470,60.4750
39.480,54.3472
39.490,53.7646
39.500,51.9736
39.510,51.6695
39.520,56.4415
39.530,58.7724
39.540,50.7308
39.550,50.5593
39.560,55.0714
39.570,50.0247
39.580,56.4333
39.590,56.9480
39.600,54.4483
39.610,54.4772
39.620,56.5010
39.630,59.2554
39.640,54.7247
39.650,54.7327
39.660,59.2855
39.670,50.1731
39.680,52.5502
39.690,55.2133
39.700,53.2439
39.710,53.0262
39.720,53.9421
39.730,59.5596
39.740,54.1860
39.750,52.7951
39.760,51.5964
39.770,53.2988
39.780,52.4979
39.790,50.8014
39.800,51.2856
39.810,54.9262
39.820,51.1964
39.830,54.1834
39.840,52.3614
39.850,52.5690
39.860,55.0614
39.870,57.2679
39.880,51.9802
39.890,55.4205
39.900,53.9110
39.910,57.1257
39.920,53.5333
39.930,56.7055
39.940,59.6455
39.950,57.7264
39.960,61.9206
39.970,53.6300
39.980,63.3625
39.990,56.0216
40.000,63.3379
40.010,56.8813
40.020,56.9518
40.030,61.0492
40.040,57.8334
40.050,63.9683
40.060,55.0914
40.070,64.4573
40.080,57.4974
40.090,61.2027
40.100,58.9362
40.110,64.7089
40.120,66.1491
40.130,66.3242
40.140,66.5445
40.150,57.0466
40.160,57.1591
40.170,59.4297
40.180,56.8675
40.190,63.3917
40.200,60.6662
40.210,57.7646
40.220,60.9896
40.230,58.3328
40.240,65.2489
40.250,58.9620
40.260,62.8109
40.270,61.4988
40.280,61.8147
40.290,63.6476
40.300,62.7833
40.310,59.4771
40.320,63.8787
40.330,63.4012
40.340,58.3335
40.350,62.2622
40.360,65.4303
40.370,60.5629
40.380,63.4085
40.390,58.4588
40.400,59.4428
40.410,63.7936
40.420,64.2585
40.430,59.7968
40.440,59.8981
40.450,62.7509
40.460,65.9207
40.470,66.6756
40.480,60.3662
40.490,63.3829
40.500,59.2920
40.510,60.7226
40.520,60.3079
40.530,58.7104
40.540,58.6666
40.550,58.0982
40.560,60.6445
40.570,61.2890
40.580,61.1368
40.590,64.5513
40.600,63.9798
40.610,65.3670
40.620,59.7889
40.630,61.2526
40.640,64.1376
40.650,60.3482
40.660,60.0637
40.670,64.4884
40.680,63.0093
40.690,63.4287
40.700,59.9531
40.710,53.9341
40.720,64.0965
40.730,56.9272
40.740,59.2490
40.750,59.1371
40.760,60.6307
40.770,61.4023
40.780,62.4923
40.790,54.2108
40.800,54.4269
40.810,55.0332
40.820,59.8859
40.830,57.5729
40.840,58.3228
40.850,53.4050
40.860,51.9432
40.870,60.3225
40.880,54.5122
40.890,54.2556
40.900,53.6122
40.910,57.3061
40.920,50.9065
40.930,56.8796
40.940,51.7459
40.950,50.3734
40.960,53.2724
40.970,54.3724
40.980,51.5103
40.990,60.3504
41.000,50.1815
41.010,51.1656
41.020,56.0780
41.030,52.6920
41.040,57.5705
41.050,52.2777
41.060,58.0525
41.070,58.7382
41.080,57.7001
41.090,57.0654
41.100,55.5956
41.110,56.9334
41.120,57.9247
41.130,56.6470
41.140,54.4535
41.150,53.2961
41.160,57.9660
41.170,50.6409
41.180,56.0491
41.190,59.0203
41.200,57.3247
41.210,50.7619
41.220,59.9291
41.230,59.6494
41.240,56.8102
41.250,51.1613
41.260,58.8822
41.270,57.3760
41.280,56.7821
41.290,54.6845
41.300,54.0285
41.310,56.5102
41.320,53.4502
41.330,54.4230
41.340,62.7383
41.350,60.4426
41.360,59.4507
41.370,57.2717
41.380,61.3051
41.390,57.1684
41.400,61.8450
41.410,59.5634
41.420,62.0617
41.430,63.2017
41.440,63.3381
41.450,56.4602
41.460,57.9661
41.470,61.3287
41.480,57.4691
41.490,61.2286
41.500,60.3189
41.510,61.0031
41.520,65.3153
41.530,55.8429
41.540,60.8616
41.550,58.5288
41.560,58.2942
41.570,56.8518
41.580,57.5063
41.590,60.3204
41.600,61.3218
41.610,59.3337
41.620,58.6205
41.630,62.6884
41.640,60.5694
41.650,58.3227
41.660,59.0601
41.670,61.7464
41.680,67.2716
41.690,67.5950
41.700,59.2947
41.710,59.7099
41.720,59.3769
41.730,59.4479
41.740,58.9559
41.750,60.4821
41.760,60.6723
41.770,66.0277
41.780,60.6846
41.790,64.0399
41.800,61.9401
41.810,60.1491
41.820,66.3218
41.830,63.0596
41.840,59.4642
41.850,60.1882
41.860,66.9389
41.870,65.8361
41.880,61.6501
41.890,66.6412
41.900,66.4521
41.910,57.7502
41.920,61.3384
41.930,67.1768
41.940,61.7133
41.950,67.5247
41.960,65.2584
41.970,62.7102
41.980,58.0003
41.990,59.6426
42.000,61.2275
42.010,66.0611
42.020,66.2106
42.030,60.7192
42.040,57.3753
42.050,64.7518
42.060,56.0629
42.070,65.5467
42.080,57.1898
42.090,57.0172
42.100,60.2295
42.110,61.9229
42.120,56.4299
42.130,55.2176
42.140,59.7575
42.150,60.3544
42.160,59.4399
42.170,57.7991
42.180,60.2694
42.190,59.0904
42.200,55.6365
42.210,53.7132
42.220,59.4044
42.230,60.6130
42.240,59.4613
42.250,57.9011
42.260,61.3287
42.270,53.7545
42.280,61.1198
42.290,52.2934
42.300,55.7290
42.310,59.7994
42.320,61.3508
42.330,54.0419
42.340,58.2290
42.350,56.5834
42.360,53.8905
42.370,56.7956
42.380,60.4044
42.390,59.2207
42.400,58.5569
42.410,57.9282
42.420,50.8808
42.430,57.4917
42.440,51.1553
42.450,50.6139
42.460,59.7067
42.470,54.8445
42.480,52.4565
42.490,56.9592
42.500,51.6638
42.510,55.9027
42.520,60.1007
42.530,52.1051
42.540,54.6168
42.550,59.8475
42.560,50.7561
42.570,59.2306
42.580,56.6591
42.590,60.0520
42.600,60.0564
42.610,60.5005
42.620,51.9726
42.630,50.7078
42.640,52.6935
42.650,54.8775
42.660,51.1357
42.670,59.6284
42.680,53.7419
42.690,54.0833
42.700,52.4279
42.710,59.9410
42.720,58.3407
42.730,58.9805
42.740,59.4813
42.750,62.5598
42.760,54.9773
42.770,53.2835
42.780,63.1822
42.790,54.5831
42.800,57.7587
42.810,55.0341
42.820,62.6553
42.830,54.2750
42.840,57.8855
42.850,64.3263
42.860,62.4284
42.870,56.3842
42.880,58.0928
42.890,57.7079
42.900,64.1502
42.910,59.9654
42.920,60.4016
42.930,63.0851
42.940,63.0579
42.950,56.4931
42.960,63.9185
42.970,59.2295
42.980,60.0312
42.990,63.7124
43.000,60.7802
43.010,57.3948
43.020,65.9904
43.030,64.2105
43.040,59.4966
43.050,61.2797
43.060,63.3606
43.070,66.7779
43.080,66.2863
43.090,59.0013
43.100,67.2523
43.110,62.8710
43.120,65.8002
43.130,63.1159
43.140,65.0977
43.150,68.3371
43.160,60.5010
43.170,60.0799
43.180,66.3932
43.190,61.7934
43.200,64.7930
43.210,64.5955
43.220,60.6847
43.230,61.0066
43.240,68.6160
43.250,61.7241
43.260,66.3669
43.270,66.6013
43.280,64.2374
43.290,59.9183
43.300,64.3157
43.310,58.4061
43.320,61.3712
43.330,67.1597
43.340,64.4108
43.350,59.7976
43.360,63.3852
43.370,65.3963
43.380,66.7304
43.390,59.8362
43.400,61.0648
43.410,58.3345
43.420,63.0320
43.430,60.4431
43.440,61.3334
43.450,58.1281
43.460,57.0900
43.470,60.8986
43.480,60.3063
43.490,60.8257
43.500,58.4833
43.510,63.6563
43.520,61.4624
43.530,56.1621
43.540,57.5176
43.550,56.7966
43.560,59.1447
43.570,57.2095
43.580,60.3795
43.590,62.7872
43.600,56.1619
43.610,63.4242
43.620,54.5043
43.630,61.1750
43.640,61.9769
43.650,53.6567
43.660,55.3305
43.670,54.2438
43.680,57.8755
43.690,59.4658
43.700,61.6914
43.710,61.2984
43.720,60.9089
43.730,58.4661
43.740,56.2245
43.750,52.7481
43.760,55.6945
43.770,53.2782
43.780,55.8619
43.790,52.4972
43.800,59.2620
43.810,54.1885
43.820,53.3450
43.830,53.6202
43.840,53.8212
43.850,57.1178
43.860,57.5244
43.870,58.0910
43.880,59.4158
43.890,57.8160
43.900,55.6061
43.910,59.2547
43.920,56.4853
43.930,51.2408
43.940,53.9284
43.950,50.2912
43.960,56.1287
43.970,56.3768
43.980,51.7933
43.990,50.8926
44.000,55.7395
44.010,50.5809
44.020,58.6412
44.030,57.2241
44.040,52.5720
44.050,60.5078
44.060,60.0267
44.070,51.4739
44.080,53.9527
44.090,56.8604
44.100,54.9577
44.110,60.1892
44.120,52.2089
44.130,52.3219
44.140,54.1331
44.150,52.9048
44.160,59.2147
44.170,57.9945
44.180,53.9261
44.190,62.4302
44.200,59.2480
44.210,60.4529
44.220,59.4613
44.230,58.4126
44.240,56.9867
44.250,63.5033
44.260,59.6418
44.270,57.1084
44.280,58.3667
44.290,59.9160
44.300,64.7567
44.310,65.2185
44.320,58.9692
44.330,64.9011
44.340,62.1979
44.350,59.1631
44.360,61.9261
44.370,59.8016
44.380,64.9591
44.390,63.0408
44.400,57.5371
44.410,60.9158
44.420,62.4158
44.430,63.4773
44.440,57.8759
44.450,60.5339
44.460,57.4187
44.470,66.2835
44.480,62.5509
44.490,59.4039
44.500,64.1241
44.510,58.4996
44.520,58.4361
44.530,62.7372
44.540,59.4698
44.550,65.7711
44.560,62.6974
44.570,67.7604
44.580,60.7954
44.590,67.4044
44.600,65.1421
44.610,67.9449
44.620,62.9498
44.630,59.6215
44.640,58.9581
44.650,66.9508
44.660,61.9777
44.670,66.8034
44.680,59.5933
44.690,59.6044
44.700,63.6748
44.710,66.3970
44.720,62.1704
44.730,61.0605
44.740,67.2820
44.750,64.1321
44.760,60.0753
44.770,67.3836
44.780,58.6726
44.790,58.1544
44.800,59.8321
44.810,59.2282
44.820,64.1722
44.830,61.7227
44.840,60.1057
44.850,62.9570
44.860,62.1610
44.870,59.9708
44.880,63.3828
44.890,65.8072
44.900,60.9754
44.910,64.6587
44.920,65.3021
44.930,65.5378
44.940,61.5690
44.950,60.8578
44.960,55.5584
44.970,58.7924
44.980,60.4159
44.990,59.4622
45.000,64.1000
45.010,61.5898
45.020,63.0616
45.030,57.7505
45.040,62.9526
45.050,60.9123
45.060,61.6569
45.070,69.2827
45.080,65.1966
45.090,67.7866
45.100,72.6151
45.110,71.0147
45.120,68.2680
45.130,71.7968
45.140,68.9599
45.150,73.8741
45.160,70.9233
45.170,70.7623
45.180,72.4633
45.190,74.9701
45.200,76.3511
45.210,77.3645
45.220,78.2961
45.230,84.8256
45.240,86.5404
45.250,78.3692
45.260,87.5969
45.270,81.4821
45.280,82.4790
45.290,88.1882
45.300,87.5204
45.310,84.5169
45.320,84.7680
45.330,91.0249
45.340,91.4542
45.350,87.0866
45.360,88.8709
45.370,89.1038
45.380,88.8543
45.390,94.6701
45.400,96.3423
45.410,93.5293
45.420,95.3852
45.430,94.6211
45.440,102.8081
45.450,100.5569
45.460,104.9052
45.470,104.1756
45.480,100.3430
45.490,107.6222
45.500,108.9315
45.510,103.3639
45.520,106.0714
45.530,105.1757
45.540,104.7359
45.550,104.7841
45.560,108.1933
45.570,112.0468
45.580,114.6718
45.590,114.5384
45.600,113.3515
45.610,117.9399
45.620,111.4910
45.630,113.6655
45.640,121.2586
45.650,115.4959
45.660,123.7670
45.670,115.2100
45.680,122.1881
45.690,123.1164
45.700,120.1601
45.710,122.6029
45.720,124.5351
45.730,122.0440
45.740,130.9793
45.750,131.4283
45.760,129.0976
45.770,134.2713
45.780,133.8897
45.790,127.8706
45.800,134.1194
45.810,130.1450
45.820,131.6274
45.830,134.5378
45.840,133.0576
45.850,135.2141
45.860,133.7229
45.870,141.4381
45.880,135.2092
45.890,139.2445
45.900,142.3104
45.910,142.0255
45.920,140.9407
45.930,146.8249
45.940,143.0609
45.950,149.9899
45.960,149.9632
45.970,142.4097
45.980,151.8783
45.990,153.4485
46.000,149.6557
46.010,150.2760
46.020,150.0761
46.030,154.6439
46.040,150.4697
46.050,152.7266
46.060,148.6315
46.070,147.7834
46.080,154.4261
46.090,151.7232
46.100,152.1370
46.110,145.8551
46.120,145.7869
46.130,146.7691
46.140,150.7694
46.150,145.2634
46.160,151.5377
46.170,148.5979
46.180,147.6872
46.190,151.0756
46.200,148.3038
46.210,150.6464
46.220,150.4767
46.230,154.2988
46.240,146.6670
46.250,147.4984
46.260,150.1970
46.270,154.4276
46.280,148.2591
46.290,153.0970
46.300,144.8610
46.310,153.2300
46.320,145.3607
46.330,151.5702
46.340,145.5893
46.350,152.4637
46.360,154.8974
46.370,149.6801
46.380,146.6145
46.390,149.2346
46.400,145.7089
46.410,152.7871
46.420,154.0982
46.430,150.0841
46.440,155.1009
46.450,149.0431
46.460,152.3320
46.470,150.1993
46.480,153.1283
46.490,153.9439
46.500,153.0491
46.510,147.4636
46.520,153.8136
46.530,153.2011
46.540,152.6734
46.550,152.4229
46.560,151.5241
46.570,150.7889
46.580,146.6781
46.590,151.1585
46.600,146.1102
46.610,152.6666
46.620,145.1679
46.630,146.6593
46.640,151.6093
46.650,145.2174
46.660,152.7674
46.670,153.4251
46.680,154.1638
46.690,149.4315
46.700,151.9718
46.710,152.8839
46.720,146.6674
46.730,147.1847
46.740,145.3911
46.750,147.4958
46.760,154.9404
46.770,151.8045
46.780,147.2203
46.790,152.5136
46.800,151.9573
46.810,146.3342
46.820,154.0618
46.830,150.0934
46.840,152.5435
46.850,153.1530
46.860,148.4218
46.870,151.2038
46.880,147.1367
46.890,151.2311
46.900,145.9526
46.910,152.4309
46.920,146.0662
46.930,150.9100
46.940,154.2141
46.950,154.3597
46.960,151.7340
46.970,153.3968
46.980,153.1106
46.990,146.8977
47.000,62.8664
47.010,57.0628
47.020,61.9686
47.030,61.6713
47.040,57.8015
47.050,56.7221
47.060,60.8795
47.070,62.3024
47.080,56.1029
47.090,62.9510
47.100,54.9806
47.110,57.0369
47.120,59.7588
47.130,63.9884
47.140,64.6463
47.150,59.0207
47.160,55.8832
47.170,60.1731
47.180,61.9886
47.190,64.9409
47.200,60.8267
47.210,58.7303
47.220,58.6446
47.230,58.4321
47.240,64.5407
47.250,63.5762
47.260,65.8259
47.270,66.3486
47.280,58.7458
47.290,67.2593
47.300,59.1746
47.310,60.1050
47.320,60.9254
47.330,62.2055
47.340,67.4098
47.350,67.4408
47.360,64.2914
47.370,65.2359
47.380,68.0209
47.390,65.1972
47.400,65.8847
47.410,64.3414
47.420,69.0219
47.430,60.8213
47.440,66.0666
47.450,68.7114
47.460,66.4335
47.470,65.9139
47.480,63.9287
47.490,68.8665
47.500,63.0591
47.510,67.1242
47.520,67.0208
47.530,69.5380
47.540,59.2145
47.550,69.0375
47.560,60.9989
47.570,66.5059
47.580,59.9986
47.590,66.9519
47.600,60.2268
47.610,60.6252
47.620,61.5378
47.630,60.2988
47.640,67.0024
47.650,66.1478
47.660,66.9345
47.670,61.0687
47.680,59.5232
47.690,59.5372
47.700,65.8364
47.710,60.6187
47.720,58.8136
47.730,64.6677
47.740,65.4356
47.750,63.5657
47.760,61.4033
47.770,58.7776
47.780,57.4665
47.790,65.6659
47.800,65.0193
47.810,60.1461
47.820,65.5597
47.830,65.4737
47.840,62.4703
47.850,64.7080
47.860,57.1956
47.870,59.5176
47.880,55.8279
47.890,59.2061
47.900,59.0461
47.910,63.5032
47.920,54.8465
47.930,55.2099
47.940,61.7542
47.950,57.9329
47.960,56.9139
47.970,57.0731
47.980,57.1184
47.990,57.7144
48.000,58.9118
48.010,57.0372
48.020,61.6053
48.030,59.5504
48.040,54.5129
48.050,58.2182
48.060,58.3127
48.070,52.7562
48.080,61.3119
48.090,55.3262
48.100,55.7234
48.110,61.7913
48.120,56.1272
48.130,60.0352
48.140,58.4594
48.150,55.4301
48.160,52.9310
48.170,54.5838
48.180,54.1088
48.190,55.4982
48.200,56.7642
48.210,53.5513
48.220,56.9474
48.230,53.6873
48.240,51.0139
48.250,54.9637
48.260,57.5670
48.270,56.4558
48.280,59.3467
48.290,56.1232
48.300,60.5291
48.310,59.2466
48.320,59.2770
48.330,58.7606
48.340,59.6160
48.350,60.0196
48.360,57.7248
48.370,54.6721
48.380,56.0015
48.390,60.8774
48.400,54.4669
48.410,58.0147
48.420,52.6394
48.430,54.9043
48.440,56.6558
48.450,61.6401
48.460,59.0312
48.470,59.3500
48.480,54.9703
48.490,54.8478
48.500,58.2019
48.510,56.8307
48.520,55.1377
48.530,64.2098
48.540,55.5042
48.550,61.6121
48.560,58.3573
48.570,61.6859
48.580,57.6349
48.590,65.3068
48.600,65.9753
48.610,62.2761
48.620,66.0291
48.630,65.8277
48.640,63.8648
48.650,59.2522
48.660,65.1318
48.670,63.7876
48.680,59.6820
48.690,65.1224
48.700,59.4206
48.710,59.9610
48.720,64.9063
48.730,64.8188
48.740,65.3616
48.750,60.0752
48.760,67.3309
48.770,58.8434
48.780,67.5007
48.790,66.4074
48.800,66.7271
48.810,65.8070
48.820,59.6472
48.830,67.3624
48.840,66.6368
48.850,63.8370
48.860,60.4076
48.870,68.2077
48.880,67.2414
48.890,65.5499
48.900,62.5076
48.910,62.3512
48.920,69.0185
48.930,64.7775
48.940,62.4336
48.950,62.2236
48.960,62.4885
48.970,66.8140
48.980,66.6328
48.990,69.0994
49.000,62.8822
49.010,69.2393
49.020,60.4850
49.030,68.6848
49.040,62.6841
49.050,61.4639
49.060,64.1762
49.070,63.6383
49.080,59.9183
49.090,65.4996
49.100,59.1587
49.110,59.0477
49.120,67.4894
49.130,66.7372
49.140,64.7867
49.150,61.0329
49.160,60.5050
49.170,62.7092
49.180,62.5601
49.190,67.3506
49.200,66.6614
49.210,63.9793
49.220,57.7532
49.230,63.9965
49.240,59.0479
49.250,59.6170
49.260,58.4959
49.270,59.9240
49.280,64.0315
49.290,56.5407
49.300,64.1224
49.310,64.1686
49.320,63.9478
49.330,64.1257
49.340,59.5382
49.350,60.7706
49.360,58.0625
49.370,59.1570
49.380,54.9850
49.390,59.5900
49.400,55.5541
49.410,54.2509
49.420,63.3703
49.430,57.0119
49.440,59.2569
49.450,57.5817
49.460,58.2032
49.470,55.0610
49.480,62.2127
49.490,60.9384
49.500,54.7171
49.510,55.3245
49.520,54.0902
49.530,57.3904
49.540,56.3403
49.550,56.0247
49.560,52.8306
49.570,57.9908
49.580,61.1424
49.590,56.8255
49.600,56.8767
49.610,54.5198
49.620,57.0575
49.630,60.7653
49.640,53.7307
49.650,57.8223
49.660,59.1930
49.670,58.4373
49.680,55.6135
49.690,58.2389
49.700,54.3374
49.710,51.5987
49.720,55.8338
49.730,53.6532
49.740,56.5422
49.750,58.5470
49.760,57.8844
49.770,54.6573
49.780,59.6221
49.790,61.4620
49.800,54.6141
49.810,57.1023
49.820,57.7375
49.830,56.2961
49.840,59.0901
49.850,55.2897
49.860,61.7492
49.870,58.7368
49.880,57.7277
49.890,54.6841
49.900,55.0775
49.910,61.3379
49.920,55.7579
49.930,63.6808
49.940,57.3416
49.950,58.2616
49.960,54.9912
49.970,63.5743
49.980,64.2675
49.990,60.4792
50.000,65.1963
50.010,60.8341
50.020,65.0927
50.030,62.8807
50.040,57.6482
50.050,56.7281
50.060,64.4077
50.070,66.9688
50.080,58.6319
50.090,62.0031
50.100,66.5551
50.110,60.2495
50.120,66.4818
50.130,62.2180
50.140,64.9655
50.150,66.8356
50.160,66.8212
50.170,66.7479
50.180,59.2948
50.190,61.5721
50.200,60.7318
50.210,67.2622
50.220,62.8896
50.230,65.5130
50.240,63.1509
50.250,62.4887
50.260,65.9465
50.270,64.7471
50.280,69.4934
50.290,65.5163
50.300,62.1559
50.310,65.2578
50.320,59.9742
50.330,62.0647
50.340,62.0962
50.350,68.8841
50.360,68.4122
50.370,69.1549
50.380,60.8564
50.390,63.3824
50.400,68.8112
50.410,67.3504
50.420,67.3448
50.430,63.0934
50.440,67.3034
50.450,60.9571
50.460,69.6177
50.470,62.8330
50.480,65.0465
50.490,67.2345
50.500,62.6718
50.510,65.6486
50.520,63.7349
50.530,63.3217
50.540,64.3219
50.550,63.1359
50.560,62.4721
50.570,58.0495
50.580,64.7282
50.590,67.8056
50.600,65.4811
50.610,57.6865
50.620,67.4397
50.630,65.1266
50.640,57.9055
50.650,60.7125
50.660,57.3829
50.670,61.1721
50.680,61.0055
50.690,56.6461
50.700,64.5716
50.710,62.1549
50.720,61.2913
50.730,60.6598
50.740,56.9015
50.750,59.7503
50.760,60.1781
50.770,62.5097
50.780,54.7305
50.790,61.1051
50.800,55.6674
50.810,54.4976
50.820,55.0058
50.830,59.1015
50.840,60.2652
50.850,58.2582
50.860,54.6045
50.870,59.5510
50.880,58.0832
50.890,56.6650
50.900,55.7105
50.910,59.9052
50.920,61.7142
50.930,52.4826
50.940,53.1716
50.950,56.1770
50.960,58.0699
50.970,58.5760
50.980,55.6643
50.990,61.6820
51.000,56.3261
51.010,61.3284
51.020,54.0421
51.030,61.1763
51.040,53.5469
51.050,53.0758
51.060,53.7207
51.070,52.2052
51.080,56.3260
51.090,55.7511
51.100,54.4064
51.110,58.5231
51.120,58.9000
51.130,53.2423
51.140,57.2883
51.150,61.2275
51.160,53.5663
51.170,55.4836
51.180,57.4673
51.190,61.4921
51.200,58.4140
51.210,59.7496
51.220,60.4012
51.230,60.2592
51.240,54.8513
51.250,59.5021
51.260,58.0299
51.270,58.2883
51.280,62.5812
51.290,63.6609
51.300,60.6115
51.310,54.2129
51.320,59.4385
51.330,54.0611
51.340,55.9191
51.350,61.8385
51.360,56.2452
51.370,57.1347
51.380,57.4469
51.390,57.7678
51.400,56.7035
51.410,59.3339
51.420,59.5864
51.430,56.7553
51.440,58.1320
51.450,56.6081
51.460,60.9911
51.470,66.3613
51.480,60.5411
51.490,64.0227
51.500,58.7351
51.510,61.0001
51.520,58.0335
51.530,67.1589
51.540,58.5035
51.550,61.8267
51.560,67.2054
51.570,64.6608
51.580,68.1547
51.590,68.2815
51.600,64.6914
51.610,68.0865
51.620,63.1319
51.630,61.6827
51.640,60.9782
51.650,65.9977
51.660,69.5319
51.670,67.1374
51.680,65.3033
51.690,68.3384
51.700,68.6287
51.710,61.4448
51.720,62.6620
51.730,66.8619
51.740,68.9918
51.750,62.4246
51.760,61.2996
51.770,65.8114
51.780,68.3990
51.790,70.1085
51.800,62.0134
51.810,70.2424
51.820,68.7095
51.830,67.8659
51.840,69.2240
51.850,65.0092
51.860,60.5534
51.870,59.8832
51.880,65.6261
51.890,69.8224
51.900,65.7512
51.910,63.4300
51.920,61.7761
51.930,67.7169
51.940,65.3898
51.950,61.6568
51.960,63.9510
51.970,68.9195
51.980,58.8897
51.990,68.4104
52.000,60.9676
52.010,64.2522
52.020,62.0044
52.030,58.1992
52.040,63.3723
52.050,64.4161
52.060,57.4573
52.070,63.1273
52.080,66.9003
52.090,66.5385
52.100,57.6158
52.110,62.3081
52.120,57.7092
52.130,63.3332
52.140,62.2801
52.150,63.6509
52.160,57.6454
52.170,56.1203
52.180,57.8115
52.190,65.0443
52.200,54.9399
52.210,57.2004
52.220,64.2097
52.230,54.8622
52.240,62.7367
52.250,55.2570
52.260,60.4011
52.270,55.5369
52.280,62.8485
52.290,56.9129
52.300,58.6166
52.310,59.0686
52.320,58.2491
52.330,60.2694
52.340,55.6618
52.350,58.3283
52.360,59.0298
52.370,55.2949
52.380,53.8090
52.390,56.9286
52.400,59.8655
52.410,60.1031
52.420,58.5492
52.430,52.5252
52.440,61.9090
52.450,54.8764
52.460,58.2308
52.470,54.9893
52.480,58.9539
52.490,51.9081
52.500,53.2149
52.510,52.1597
52.520,59.2901
52.530,55.6494
52.540,57.0932
52.550,53.9774
52.560,60.2969
52.570,59.6914
52.580,61.7372
52.590,56.3809
52.600,59.3806
52.610,56.6229
52.620,55.1348
52.630,57.7093
52.640,58.7748
52.650,57.1975
52.660,54.9966
52.670,58.7850
52.680,53.6458
52.690,63.3599
52.700,59.5696
52.710,58.1841
52.720,58.5294
52.730,62.2964
52.740,62.5974
52.750,56.3731
52.760,60.8652
52.770,57.6978
52.780,60.7978
52.790,54.7982
52.800,62.6656
52.810,63.1800
52.820,60.5720
52.830,63.2566
52.840,57.8311
52.850,57.1838
52.860,64.2644
52.870,59.6676
52.880,56.5894
52.890,64.6422
52.900,57.7308
52.910,65.8060
52.920,58.5932
52.930,63.8456
52.940,61.4739
52.950,58.0904
52.960,58.1394
52.970,61.9339
52.980,67.9322
52.990,60.8297
53.000,65.6317
53.010,61.8010
53.020,62.8581
53.030,61.1442
53.040,60.3928
53.050,68.4322
53.060,61.5454
53.070,64.9259
53.080,60.5376
53.090,62.4525
53.100,69.5062
53.110,63.2925
53.120,60.4772
53.130,60.0335
53.140,63.5763
53.150,67.0493
53.160,63.7535
53.170,61.1525
53.180,68.6057
53.190,65.9854
53.200,65.2140
53.210,60.9885
53.220,68.9868
53.230,64.4586
53.240,67.4336
53.250,65.0602
53.260,61.6135
53.270,62.4791
53.280,70.2004
53.290,69.2653
53.300,67.6887
53.310,60.1914
53.320,64.3133
53.330,60.6563
53.340,67.0410
53.350,64.2478
53.360,65.7941
53.370,68.8301
53.380,68.5052
53.390,65.8889
53.400,60.7219
53.410,61.0502
53.420,64.0070
53.430,65.9131
53.440,58.3701
53.450,65.3826
53.460,62.5616
53.470,64.6585
53.480,63.2855
53.490,63.2710
53.500,59.3899
53.510,58.9763
53.520,58.5103
53.530,66.8868
53.540,59.7863
53.550,57.3305
53.560,62.0404
53.570,57.7441
53.580,62.3032
53.590,57.0325
53.600,59.0214
53.610,61.3560
53.620,61.5027
53.630,65.0124
53.640,62.1207
53.650,63.9470
53.660,64.0056
53.670,60.1957
53.680,58.3335
53.690,61.0829
53.700,56.7583
53.710,59.7958
53.720,62.1541
53.730,60.6573
53.740,54.0624
53.750,61.7020
53.760,54.0826
53.770,62.5019
53.780,53.8091
53.790,54.7738
53.800,54.7262
53.810,59.3695
53.820,60.1065
53.830,58.6363
53.840,61.4435
53.850,56.9433
53.860,57.3065
53.870,53.6625
53.880,52.8562
53.890,59.2707
53.900,52.9744
53.910,58.6185
53.920,53.8655
53.930,60.7481
53.940,61.2520
53.950,53.3891
53.960,62.3765
53.970,52.9226
53.980,57.8980
53.990,56.9237
54.000,57.2747
54.010,59.7303
54.020,59.1513
54.030,57.1839
54.040,62.3949
54.050,54.3392
54.060,62.7957
54.070,55.4887
54.080,58.5714
54.090,59.1268
54.100,57.5244
54.110,63.2066
54.120,58.8822
54.130,56.8678
54.140,63.7914
54.150,62.6734
54.160,57.1647
54.170,60.3599
54.180,61.9997
54.190,61.0734
54.200,56.9675
54.210,57.5053
54.220,59.4385
54.230,61.4286
54.240,60.8030
54.250,56.6857
54.260,60.2749
54.270,63.4305
54.280,65.4013
54.290,66.1566
54.300,62.4617
54.310,64.9306
54.320,58.5507
54.330,61.9554
54.340,57.2587
54.350,60.3096
54.360,60.8029
54.370,60.8660
54.380,61.2708
54.390,65.8676
54.400,60.0375
54.410,59.0553
54.420,68.2988
54.430,58.8769
54.440,62.6797
54.450,62.3550
54.460,67.8032
54.470,67.9855
54.480,62.9624
54.490,67.9048
54.500,68.9420
54.510,61.2428
54.520,63.0733
54.530,67.4509
54.540,63.8884
54.550,67.1584
54.560,68.5637
54.570,70.2258
54.580,61.7174
54.590,68.9040
54.600,67.7291
54.610,61.9350
54.620,67.0403
54.630,62.1565
54.640,62.2148
54.650,60.7727
54.660,65.4640
54.670,61.8104
54.680,69.6399
54.690,60.8512
54.700,65.4132
54.710,63.5765
54.720,67.9924
54.730,68.5149
54.740,64.5029
54.750,63.1635
54.760,66.3156
54.770,69.8667
54.780,67.8121
54.790,65.1174
54.800,67.0765
54.810,69.7007
54.820,67.0662
54.830,66.4666
54.840,62.1741
54.850,61.2306
54.860,67.2184
54.870,66.5382
54.880,63.4514
54.890,66.1867
54.900,63.6044
54.910,68.0630
54.920,66.7909
54.930,61.6562
54.940,61.0993
54.950,61.3674
54.960,57.3923
54.970,57.7949
54.980,62.5190
54.990,61.1483
55.000,63.8260
55.010,61.6824
55.020,59.4912
55.030,57.2237
55.040,58.8826
55.050,62.3828
55.060,55.4765
55.070,62.1063
55.080,61.8531
55.090,60.4900
55.100,60.3784
55.110,56.4744
55.120,56.2421
55.130,59.1402
55.140,62.7002
55.150,58.2070
55.160,57.0197
55.170,63.0743
55.180,57.6305
55.190,53.7793
55.200,57.2618
55.210,53.7795
55.220,54.7069
55.230,54.5806
55.240,58.1829
55.250,54.8194
55.260,55.0755
55.270,62.7908
55.280,55.7564
55.290,54.5200
55.300,53.7037
55.310,55.9030
55.320,54.2910
55.330,57.5515
55.340,57.6123
55.350,57.5288
55.360,54.0177
55.370,62.0786
55.380,52.4185
55.390,55.7901
55.400,55.3978
55.410,60.4778
55.420,56.8536
55.430,54.5874
55.440,62.7451
55.450,62.6324
55.460,62.9240
55.470,60.4307
55.480,59.6845
55.490,61.9993
55.500,54.5992
55.510,59.6050
55.520,59.9468
55.530,54.5100
55.540,57.1619
55.550,63.1766
55.560,57.9519
55.570,55.1247
55.580,61.8252
55.590,60.5389
55.600,57.2297
55.610,64.2348
55.620,60.6586
55.630,64.9457
55.640,59.2039
55.650,59.6686
55.660,57.8591
55.670,59.0576
55.680,56.9847
55.690,65.1924
55.700,59.9841
55.710,65.2672
55.720,63.7106
55.730,58.3106
55.740,66.0231
55.750,64.3605
55.760,60.7285
55.770,59.1475
55.780,67.1876
55.790,58.2821
55.800,58.3799
55.810,66.5449
55.820,65.0546
55.830,59.8089
55.840,65.2499
55.850,59.7590
55.860,66.8040
55.870,67.5405
55.880,64.3428
55.890,61.0617
55.900,69.5027
55.910,63.9726
55.920,61.5600
55.930,66.1354
55.940,68.2597
55.950,67.5096
55.960,62.0237
55.970,61.6617
55.980,62.1009
55.990,64.9010
56.000,69.6668
56.010,70.7452
56.020,66.5921
56.030,69.1597
56.040,66.1991
56.050,61.0519
56.060,66.1917
56.070,66.0476
56.080,63.1066
56.090,64.9823
56.100,65.4881
56.110,70.7322
56.120,70.5948
56.130,64.2186
56.140,69.0154
56.150,66.4250
56.160,61.6935
56.170,60.5303
56.180,68.5880
56.190,68.5201
56.200,68.6791
56.210,61.4428
56.220,66.4906
56.230,68.7748
56.240,65.4163
56.250,68.3655
56.260,61.6594
56.270,67.2154
56.280,69.4647
56.290,65.4025
56.300,61.7544
56.310,67.8404
56.320,68.1735
56.330,59.0032
56.340,65.0879
56.350,62.9509
56.360,57.9174
56.370,67.1985
56.380,58.1249
56.390,58.2734
56.400,58.9011
56.410,63.8116
56.420,57.1818
56.430,66.8973
56.440,59.6376
56.450,63.9290
56.460,63.7913
56.470,59.8887
56.480,62.1524
56.490,56.9705
56.500,60.4144
56.510,56.1380
56.520,59.0577
56.530,61.6743
56.540,58.0764
56.550,57.4993
56.560,56.2145
56.570,63.6559
56.580,58.4475
56.590,60.5201
56.600,55.5317
56.610,55.9108
56.620,56.0301
56.630,57.2079
56.640,58.6003
56.650,59.3053
56.660,59.6080
56.670,55.5164
56.680,53.7640
56.690,57.5520
56.700,58.5201
56.710,56.9535
56.720,59.4625
56.730,62.5093
56.740,54.6551
56.750,57.0847
56.760,61.4685
56.770,54.4102
56.780,60.4299
56.790,61.7298
56.800,55.8858
56.810,54.2346
56.820,54.2831
56.830,55.7151
56.840,55.8608
56.850,55.2000
56.860,57.5544
56.870,58.6241
56.880,55.2659
56.890,53.8676
56.900,60.8798
56.910,62.7886
56.920,59.3669
56.930,56.5315
56.940,55.3272
56.950,61.7518
56.960,60.9772
56.970,59.6366
56.980,57.7710
56.990,55.8161
57.000,60.7855
57.010,59.4512
57.020,56.3557
57.030,56.5558
57.040,59.7922
57.050,62.9365
57.060,65.0934
57.070,62.6347
57.080,57.5825
57.090,64.1115
57.100,65.3491
57.110,56.6719
57.120,63.4050
57.130,59.9133
57.140,59.2291
57.150,63.3851
57.160,62.5065
57.170,66.2880
57.180,61.4743
57.190,59.7982
57.200,61.0602
57.210,67.7547
57.220,67.3372
57.230,62.5180
57.240,60.6676
57.250,63.9031
57.260,65.8161
57.270,66.1862
57.280,66.4891
57.290,66.1494
57.300,69.1993
57.310,60.2828
57.320,60.2754
57.330,60.0950
57.340,69.7589
57.350,61.5937
57.360,64.1157
57.370,61.5879
57.380,68.0837
57.390,66.7238
57.400,61.2962
57.410,65.9767
57.420,62.0813
57.430,65.7492
57.440,61.8741
57.450,67.4662
57.460,69.8267
57.470,65.5370
57.480,64.5545
57.490,64.1922
57.500,69.7891
57.510,64.3997
57.520,62.5341
57.530,69.4688
57.540,66.4912
57.550,63.5997
57.560,70.4921
57.570,69.4765
57.580,67.0024
57.590,60.9299
57.600,60.9951
57.610,67.1287
57.620,69.6054
57.630,60.3325
57.640,68.1999
57.650,69.9299
57.660,68.9868
57.670,69.7976
57.680,64.2141
57.690,68.1908
57.700,65.4279
57.710,61.0691
57.720,61.2834
57.730,68.0570
57.740,62.5390
57.750,68.7283
57.760,68.4896
57.770,60.1270
57.780,58.6939
57.790,66.2462
57.800,63.2973
57.810,60.1179
57.820,61.6488
57.830,66.2073
57.840,66.7340
57.850,61.5125
57.860,60.9840
57.870,63.8919
57.880,58.3847
57.890,57.6287
57.900,56.4058
57.910,65.9591
57.920,55.7704
57.930,60.8905
57.940,64.0847
57.950,59.6750
57.960,60.6632
57.970,61.9372
57.980,54.7935
57.990,55.9414
58.000,64.2517
58.010,56.6364
58.020,59.5904
58.030,55.0376
58.040,56.3882
58.050,63.9477
58.060,56.2768
58.070,61.2135
58.080,57.5243
58.090,63.5484
58.100,56.6972
58.110,58.4988
58.120,59.2127
58.130,57.7196
58.140,60.5696
58.150,57.6395
58.160,59.1191
58.170,59.0906
58.180,55.3462
58.190,57.5534
58.200,54.0772
58.210,59.3496
58.220,56.2939
58.230,59.2009
58.240,55.9378
58.250,54.5585
58.260,54.2012
58.270,60.9902
58.280,58.4590
58.290,59.7734
58.300,53.8480
58.310,57.4719
58.320,56.1378
58.330,56.6732
58.340,62.2932
58.350,54.9281
58.360,62.7075
58.370,54.7846
58.380,55.4967
58.390,58.1185
58.400,59.9741
58.410,58.2134
58.420,59.3504
58.430,60.9800
58.440,61.5866
58.450,64.1914
58.460,61.1314
58.470,61.4342
58.480,63.2251
58.490,57.0677
58.500,56.1152
58.510,58.8343
58.520,58.8536
58.530,56.1651
58.540,61.5633
58.550,63.8028
58.560,64.9608
58.570,63.7805
58.580,58.0161
58.590,65.4968
58.600,59.4579
58.610,59.6745
58.620,58.0546
58.630,59.9950
58.640,66.7159
58.650,68.1349
58.660,62.7605
58.670,65.0407
58.680,68.9956
58.690,64.9276
58.700,60.8158
58.710,63.1552
58.720,60.6350
58.730,59.6792
58.740,63.5327
58.750,62.8090
58.760,62.2413
58.770,70.1527
58.780,64.0172
58.790,66.0196
58.800,65.7871
58.810,65.3240
58.820,63.8336
58.830,69.3211
58.840,63.1091
58.850,64.3966
58.860,70.3362
58.870,61.3047
58.880,70.2673
58.890,63.5880
58.900,69.8937
58.910,64.0874
58.920,64.9720
58.930,64.7218
58.940,63.8298
58.950,66.6127
58.960,68.5472
58.970,67.4013
58.980,62.4955
58.990,66.0575
59.000,64.8492
59.010,65.3733
59.020,63.4623
59.030,65.2672
59.040,69.2737
59.050,65.0487
59.060,64.0624
59.070,61.9027
59.080,61.1553
59.090,65.4650
59.100,66.9999
59.110,66.8819
59.120,62.5729
59.130,66.2615
59.140,65.1554
59.150,60.5495
59.160,68.1765
59.170,63.4835
59.180,61.6121
59.190,68.1142
59.200,63.6671
59.210,58.4182
59.220,63.3372
59.230,67.7066
59.240,63.6293
59.250,66.1296
59.260,62.9754
59.270,67.2957
59.280,65.3122
59.290,61.6672
59.300,63.2384
59.310,62.9229
59.320,58.6282
59.330,58.8580
59.340,64.3167
59.350,66.2528
59.360,63.5009
59.370,56.8778
59.380,64.8175
59.390,62.5239
59.400,61.0409
59.410,57.9470
59.420,56.0517
59.430,61.6589
59.440,63.5005
59.450,61.9069
59.460,61.0619
59.470,62.5655
59.480,57.2495
59.490,61.6350
59.500,62.0709
59.510,54.9136
59.520,54.5923
59.530,54.0527
59.540,56.2376
59.550,57.0882
59.560,59.1955
59.570,61.1239
59.580,54.0806
59.590,61.0659
59.600,62.8688
59.610,56.4942
59.620,60.5991
59.630,53.5413
59.640,53.7041
59.650,54.2848
59.660,54.2065
59.670,55.9439
59.680,58.8383
59.690,59.4427
59.700,60.1056
59.710,60.3520
59.720,54.4581
59.730,62.8852
59.740,58.5741
59.750,61.5705
59.760,56.4565
59.770,58.4557
59.780,60.7585
59.790,54.6385
59.800,57.1368
59.810,59.7674
59.820,62.8914
59.830,61.1422
59.840,60.7450
59.850,57.3018
59.860,60.1743
59.870,64.1835
59.880,61.3493
59.890,60.0232
59.900,60.9491
59.910,61.5696
59.920,57.5044
59.930,58.0153
59.940,64.0322
59.950,59.3184
59.960,64.3718
59.970,66.2163
59.980,61.9731
59.990,67.0715
