t_s,envelope_uV
0.000,68.5845
0.010,74.8757
0.020,74.0138
0.030,67.7988
0.040,74.3432
0.050,77.2143
0.060,74.5313
0.070,71.1568
0.080,66.6327
0.090,76.2210
0.100,68.8888
0.110,68.5408
0.120,71.3644
0.130,77.7909
0.140,80.8794
0.150,78.6201
0.160,76.9590
0.170,76.4155
0.180,73.1677
0.190,81.2864
0.200,70.8406
0.210,73.9456
0.220,71.1054
0.230,72.8604
0.240,75.4824
0.250,70.7146
0.260,75.7368
0.270,76.3585
0.280,75.7090
0.290,71.6068
0.300,70.7796
0.310,72.7690
0.320,72.0225
0.330,83.6405
0.340,82.9591
0.350,77.3460
0.360,76.9979
0.370,83.7658
0.380,73.8426
0.390,82.5816
0.400,78.0688
0.410,82.0456
0.420,79.7222
0.430,70.4290
0.440,74.6642
0.450,81.2713
0.460,74.4084
0.470,79.6379
0.480,80.3399
0.490,83.2198
0.500,73.9254
0.510,70.5833
0.520,71.7227
0.530,82.0052
0.540,78.5635
0.550,71.7792
0.560,71.6493
0.570,69.7541
0.580,81.9441
0.590,74.3214
0.600,67.6039
0.610,73.5571
0.620,70.5406
0.630,68.6035
0.640,70.7213
0.650,77.8873
0.660,67.4267
0.670,73.1087
0.680,69.4829
0.690,69.9122
0.700,69.7113
0.710,72.7190
0.720,74.9636
0.730,69.4387
0.740,64.1102
0.750,72.2785
0.760,65.2987
0.770,66.7657
0.780,76.9425
0.790,73.8781
0.800,75.1373
0.810,73.7680
0.820,68.1344
0.830,70.9293
0.840,68.6350
0.850,74.4601
0.860,72.1762
0.870,66.4880
0.880,65.9161
0.890,67.7498
0.900,63.3078
0.910,60.7333
0.920,63.6222
0.930,72.4213
0.940,72.9772
0.950,71.8116
0.960,70.9016
0.970,69.5935
0.980,63.0519
0.990,63.5853
1.000,61.4059
1.010,65.9661
1.020,66.5729
1.030,65.7631
1.040,64.3026
1.050,63.2583
1.060,63.4893
1.070,67.1446
1.080,72.2028
1.090,68.3487
1.100,63.7723
1.110,71.8204
1.120,70.8863
1.130,68.0551
1.140,72.1164
1.150,67.6671
1.160,73.1775
1.170,62.9627
1.180,71.5996
1.190,63.8512
1.200,63.5847
1.210,63.0328
1.220,67.0802
1.230,65.2659
1.240,64.6509
1.250,64.2850
1.260,73.1742
1.270,74.1102
1.280,66.5713
1.290,70.7862
1.300,65.5656
1.310,73.0071
1.320,67.5346
1.330,70.2190
1.340,76.2835
1.350,74.3940
1.360,63.9208
1.370,73.9384
1.380,74.8213
1.390,77.0561
1.400,65.4391
1.410,78.5116
1.420,77.3210
1.430,77.6667
1.440,67.2665
1.450,70.9997
1.460,78.1650
1.470,66.4747
1.480,68.7699
1.490,70.4052
1.500,72.5739
1.510,67.8413
1.520,75.2152
1.530,71.4797
1.540,80.6908
1.550,74.7816
1.560,74.4077
1.570,72.7635
1.580,80.9831
1.590,74.7208
1.600,78.9584
1.610,74.8881
1.620,78.1298
1.630,76.9391
1.640,74.1022
1.650,78.6658
1.660,79.8224
1.670,80.2833
1.680,83.6010
1.690,72.6755
1.700,84.6455
1.710,74.6321
1.720,81.1238
1.730,81.5229
1.740,78.6750
1.750,73.2880
1.760,83.1699
1.770,78.6255
1.780,75.7516
1.790,81.2161
1.800,77.2355
1.810,81.2126
1.820,78.0358
1.830,75.9969
1.840,72.5021
1.850,78.9468
1.860,82.2638
1.870,72.9910
1.880,81.6631
1.890,81.7343
1.900,80.8798
1.910,71.2042
1.920,82.9057
1.930,75.5648
1.940,70.0839
1.950,72.9275
1.960,77.0729
1.970,79.5012
1.980,78.3762
1.990,70.1318
2.000,76.0877
2.010,75.0752
2.020,78.1178
2.030,69.3545
2.040,78.0061
2.050,70.0594
2.060,71.4475
2.070,80.5705
2.080,75.9933
2.090,80.2112
2.100,76.7242
2.110,68.5580
2.120,69.5362
2.130,77.2237
2.140,79.4663
2.150,70.3028
2.160,75.1895
2.170,64.5903
2.180,69.6327
2.190,72.6287
2.200,77.5749
2.210,66.7972
2.220,69.7572
2.230,74.9542
2.240,67.4814
2.250,66.3779
2.260,73.3298
2.270,72.0706
2.280,62.0998
2.290,71.0868
2.300,67.6331
2.310,73.7219
2.320,66.2326
2.330,73.1468
2.340,65.8287
2.350,73.9099
2.360,61.0749
2.370,71.3397
2.380,70.5135
2.390,64.4836
2.400,62.6604
2.410,62.1861
2.420,68.1565
2.430,68.5392
2.440,70.8800
2.450,60.4347
2.460,71.4839
2.470,72.1635
2.480,72.3744
2.490,59.9897
2.500,73.3759
2.510,64.4348
2.520,68.3405
2.530,66.8263
2.540,59.5904
2.550,72.8874
2.560,60.6798
2.570,64.3036
2.580,72.1723
2.590,69.5467
2.600,66.4320
2.610,73.7305
2.620,61.5538
2.630,66.2066
2.640,70.0989
2.650,67.5024
2.660,71.3008
2.670,66.7819
2.680,65.4540
2.690,68.6890
2.700,70.1280
2.710,71.7105
2.720,75.4434
2.730,69.5687
2.740,76.6999
2.750,67.7282
2.760,75.3268
2.770,66.9007
2.780,76.8381
2.790,76.1922
2.800,71.7774
2.810,73.1684
2.820,66.8263
2.830,76.9378
2.840,65.0764
2.850,67.5206
2.860,65.5929
2.870,78.7518
2.880,70.4603
2.890,80.0366
2.900,69.3671
2.910,80.8644
2.920,78.7463
2.930,73.1167
2.940,79.1568
2.950,77.9194
2.960,71.4796
2.970,69.1755
2.980,80.5216
2.990,70.1587
3.000,72.7197
3.010,81.2242
3.020,73.0407
3.030,82.1207
3.040,80.8089
3.050,79.1809
3.060,71.0183
3.070,79.6808
3.080,77.7861
3.090,83.7777
3.100,84.3967
3.110,82.1463
3.120,84.8258
3.130,71.6762
3.140,81.1032
3.150,84.9034
3.160,82.6912
3.170,79.5103
3.180,77.6848
3.190,78.4701
3.200,78.9248
3.210,84.9412
3.220,76.9271
3.230,85.1658
3.240,75.6725
3.250,84.9969
3.260,82.2676
3.270,79.9471
3.280,80.8539
3.290,77.2534
3.300,70.9373
3.310,84.2813
3.320,82.6387
3.330,82.3622
3.340,83.3622
3.350,78.2554
3.360,71.5136
3.370,79.7008
3.380,77.4101
3.390,76.1278
3.400,80.8978
3.410,77.7261
3.420,74.2329
3.430,78.1415
3.440,74.8842
3.450,81.3082
3.460,78.4083
3.470,73.7271
3.480,69.7979
3.490,76.2343
3.500,81.0670
3.510,79.6384
3.520,74.9409
3.530,73.1876
3.540,76.3890
3.550,69.8444
3.560,77.4242
3.570,71.9951
3.580,70.1365
3.590,78.1781
3.600,76.4419
3.610,69.1726
3.620,70.4993
3.630,67.9146
3.640,67.0522
3.650,66.9023
3.660,72.5393
3.670,74.4270
3.680,69.5823
3.690,72.1220
3.700,66.5151
3.710,76.5504
3.720,68.2812
3.730,76.0959
3.740,64.2976
3.750,72.8677
3.760,68.4913
3.770,66.8695
3.780,69.2352
3.790,67.5872
3.800,73.1369
3.810,65.4115
3.820,61.2593
3.830,62.8832
3.840,61.0814
3.850,68.2067
3.860,63.7888
3.870,68.5865
3.880,64.0389
3.890,61.1311
3.900,71.7750
3.910,62.3905
3.920,73.5793
3.930,68.2663
3.940,72.7508
3.950,65.0551
3.960,69.2608
3.970,67.7918
3.980,63.6572
3.990,73.5339
4.000,62.7770
4.010,72.7726
4.020,65.2680
4.030,61.1609
4.040,64.5210
4.050,61.9257
4.060,67.5201
4.070,71.0399
4.080,67.6823
4.090,66.7603
4.100,70.7098
4.110,72.2615
4.120,74.3013
4.130,76.1877
4.140,68.6588
4.150,73.4800
4.160,70.9443
4.170,68.1757
4.180,77.1636
4.190,68.5507
4.200,70.6501
4.210,69.7050
4.220,64.8739
4.230,72.1839
4.240,73.7755
4.250,70.3815
4.260,73.8911
4.270,68.5171
4.280,76.4746
4.290,71.1181
4.300,72.5024
4.310,73.6838
4.320,77.2945
4.330,75.4934
4.340,80.5109
4.350,74.2023
4.360,72.7398
4.370,73.8346
4.380,72.2078
4.390,79.5759
4.400,77.3377
4.410,73.5272
4.420,71.4729
4.430,77.1692
4.440,74.1340
4.450,77.3069
4.460,72.4977
4.470,79.4953
4.480,74.0144
4.490,76.7241
4.500,72.2356
4.510,74.6230
4.520,81.6050
4.530,74.3019
4.540,78.5659
4.550,75.3701
4.560,84.5260
4.570,79.7155
4.580,81.2086
4.590,81.3492
4.600,81.6649
4.610,75.3910
4.620,76.4633
4.630,83.9988
4.640,83.1342
4.650,80.2211
4.660,75.4401
4.670,75.4226
4.680,72.9792
4.690,73.7283
4.700,73.7393
4.710,72.6526
4.720,73.0189
4.730,79.1140
4.740,81.6912
4.750,81.4166
4.760,81.1268
4.770,77.0465
4.780,77.2943
4.790,79.4420
4.800,80.2862
4.810,81.5734
4.820,76.9098
4.830,77.2775
4.840,78.4109
4.850,81.1014
4.860,79.4461
4.870,81.1594
4.880,69.4276
4.890,71.9266
4.900,78.1146
4.910,70.4356
4.920,71.6374
4.930,79.6303
4.940,70.1710
4.950,68.5510
4.960,80.2664
4.970,75.4441
4.980,75.9565
4.990,69.5697
5.000,79.1181
5.010,68.6809
5.020,72.7644
5.030,78.0790
5.040,78.3447
5.050,74.0538
5.060,75.6625
5.070,75.0947
5.080,75.2829
5.090,77.8877
5.100,65.2550
5.110,70.4300
5.120,76.3737
5.130,74.5383
5.140,69.9105
5.150,70.7938
5.160,62.9467
5.170,64.7736
5.180,65.1684
5.190,71.2011
5.200,74.0795
5.210,73.5017
5.220,63.2130
5.230,70.9654
5.240,63.6867
5.250,66.4816
5.260,71.7456
5.270,66.0700
5.280,69.8564
5.290,61.2866
5.300,72.2869
5.310,74.2942
5.320,62.0642
5.330,63.5471
5.340,61.9122
5.350,71.6615
5.360,61.8103
5.370,73.8569
5.380,68.0988
5.390,65.4226
5.400,69.0540
5.410,63.8187
5.420,61.3194
5.430,63.2507
5.440,66.2680
5.450,62.0728
5.460,71.2407
5.470,70.9174
5.480,65.2811
5.490,75.3455
5.500,75.4551
5.510,73.5903
5.520,64.3438
5.530,71.6134
5.540,66.9274
5.550,74.3295
5.560,75.1735
5.570,69.3154
5.580,71.5515
5.590,68.0081
5.600,69.2994
5.610,76.7068
5.620,76.6009
5.630,68.7545
5.640,76.4474
5.650,68.4914
5.660,67.1209
5.670,72.3098
5.680,68.2877
5.690,69.9462
5.700,71.4150
5.710,72.2807
5.720,70.5636
5.730,75.6570
5.740,70.6377
5.750,71.5639
5.760,80.9492
5.770,81.1572
5.780,68.5883
5.790,72.1507
5.800,69.2809
5.810,72.2999
5.820,74.8854
5.830,73.7181
5.840,72.0221
5.850,71.4340
5.860,83.8060
5.870,77.8761
5.880,77.1193
5.890,78.5824
5.900,75.9346
5.910,74.3411
5.920,74.8611
5.930,72.4739
5.940,73.4682
5.950,84.6899
5.960,82.0637
5.970,77.6361
5.980,74.3982
5.990,85.7084
6.000,78.8290
6.010,82.7060
6.020,81.3647
6.030,72.6655
6.040,82.8390
6.050,74.9640
6.060,82.0115
6.070,82.2558
6.080,80.2962
6.090,76.5905
6.100,71.8259
6.110,84.0015
6.120,84.7415
6.130,82.2758
6.140,82.7558
6.150,75.2558
6.160,72.7326
6.170,82.7639
6.180,74.4637
6.190,75.7186
6.200,83.6169
6.210,76.6717
6.220,75.4334
6.230,76.2595
6.240,76.8444
6.250,76.0640
6.260,83.9374
6.270,72.7314
6.280,74.2056
6.290,82.5700
6.300,76.4871
6.310,82.8822
6.320,77.4137
6.330,82.8865
6.340,80.5981
6.350,68.3222
6.360,78.4930
6.370,80.2324
6.380,76.6294
6.390,74.3225
6.400,68.3414
6.410,77.2823
6.420,68.5703
6.430,76.1254
6.440,73.7828
6.450,65.8597
6.460,66.6608
6.470,75.2000
6.480,71.3847
6.490,78.7954
6.500,67.1073
6.510,77.6919
6.520,65.8269
6.530,71.4648
6.540,74.3178
6.550,67.0137
6.560,67.7436
6.570,76.8805
6.580,68.1646
6.590,72.7524
6.600,70.2641
6.610,71.1088
6.620,67.4222
6.630,62.0878
6.640,74.0836
6.650,71.3404
6.660,72.8618
6.670,65.6545
6.680,61.4201
6.690,72.3422
6.700,73.3698
6.710,74.1234
6.720,73.8576
6.730,62.7618
6.740,74.3219
6.750,73.2135
6.760,62.5216
6.770,63.2731
6.780,71.8950
6.790,70.9882
6.800,67.7439
6.810,66.9925
6.820,68.7790
6.830,73.1853
6.840,72.6719
6.850,67.7756
6.860,69.5100
6.870,75.3201
6.880,75.3779
6.890,64.7607
6.900,65.3803
6.910,66.0519
6.920,65.4079
6.930,75.5862
6.940,63.2696
6.950,62.1853
6.960,71.2123
6.970,68.8537
6.980,75.4843
6.990,67.9692
7.000,68.1381
7.010,66.3408
7.020,71.5110
7.030,67.2758
7.040,65.0221
7.050,72.4847
7.060,78.3067
7.070,75.9343
7.080,71.4989
7.090,76.8330
7.100,75.7664
7.110,69.8916
7.120,75.0176
7.130,70.2691
7.140,77.0960
7.150,76.4324
7.160,69.5894
7.170,70.5592
7.180,75.4085
7.190,79.6548
7.200,76.5083
7.210,73.1090
7.220,82.5752
7.230,72.2604
7.240,76.3729
7.250,83.1960
7.260,71.8452
7.270,74.5791
7.280,71.9157
7.290,72.3100
7.300,80.8506
7.310,70.8908
7.320,75.9996
7.330,74.6321
7.340,73.8641
7.350,81.7514
7.360,71.3517
7.370,77.8602
7.380,80.6340
7.390,74.9375
7.400,75.8033
7.410,79.0397
7.420,84.8261
7.430,75.2350
7.440,82.2558
7.450,79.6872
7.460,75.7467
7.470,76.1981
7.480,83.1826
7.490,75.0033
7.500,81.0854
7.510,84.0110
7.520,80.3015
7.530,81.8833
7.540,85.4168
7.550,84.7519
7.560,78.7819
7.570,73.3134
7.580,82.4105
7.590,80.5917
7.600,79.2525
7.610,79.0212
7.620,80.3221
7.630,73.6693
7.640,73.7638
7.650,79.8593
7.660,81.4883
7.670,74.7615
7.680,71.8392
7.690,76.6461
7.700,82.5885
7.710,78.7344
7.720,71.1368
7.730,75.9866
7.740,83.0258
7.750,74.0223
7.760,74.5464
7.770,76.7567
7.780,69.7381
7.790,70.3817
7.800,70.4551
7.810,68.0887
7.820,70.0467
7.830,70.4440
7.840,75.2663
7.850,80.4506
7.860,76.5610
7.870,68.5099
7.880,66.6161
7.890,76.3730
7.900,78.5269
7.910,78.6738
7.920,71.0709
7.930,74.9458
7.940,73.0641
7.950,70.3323
7.960,75.9302
7.970,64.5900
7.980,76.2656
7.990,77.0536
8.000,71.3282
8.010,72.2344
8.020,63.9527
8.030,72.4753
8.040,69.9268
8.050,73.2247
8.060,64.7414
8.070,70.5561
8.080,73.1476
8.090,73.7463
8.100,63.7900
8.110,75.8312
8.120,72.8815
8.130,64.5104
8.140,68.5525
8.150,65.4237
8.160,62.4935
8.170,73.5794
8.180,72.2613
8.190,72.3630
8.200,69.4321
8.210,73.1519
8.220,69.5416
8.230,67.4659
8.240,73.1936
8.250,68.6478
8.260,61.5610
8.270,69.2792
8.280,72.2795
8.290,67.2125
8.300,69.8300
8.310,63.6253
8.320,65.4846
8.330,69.0089
8.340,72.8400
8.350,65.8526
8.360,65.9983
8.370,75.1621
8.380,64.7486
8.390,73.2730
8.400,72.5122
8.410,65.2094
8.420,73.2443
8.430,66.5877
8.440,68.0554
8.450,69.6315
8.460,69.4331
8.470,66.8583
8.480,64.8787
8.490,69.7693
8.500,70.3506
8.510,76.9218
8.520,79.1637
8.530,68.6667
8.540,70.0936
8.550,70.3761
8.560,75.3486
8.570,73.9640
8.580,80.9692
8.590,71.8215
8.600,78.1009
8.610,74.8879
8.620,78.1204
8.630,71.8278
8.640,78.2904
8.650,79.4934
8.660,73.0244
8.670,80.9161
8.680,72.0617
8.690,73.2386
8.700,74.2156
8.710,74.8066
8.720,83.6594
8.730,83.5510
8.740,79.3465
8.750,81.1020
8.760,79.2207
8.770,76.1721
8.780,82.6145
8.790,72.4106
8.800,79.6695
8.810,85.0555
8.820,73.7984
8.830,78.6346
8.840,81.8265
8.850,81.4032
8.860,85.6997
8.870,86.6669
8.880,81.5679
8.890,74.6318
8.900,84.0779
8.910,81.2893
8.920,83.7170
8.930,81.3269
8.940,85.3975
8.950,72.9400
8.960,76.3612
8.970,80.9216
8.980,80.0233
8.990,74.3568
9.000,73.7835
9.010,81.8570
9.020,72.6329
9.030,82.9320
9.040,84.4513
9.050,78.1805
9.060,75.0134
9.070,73.7403
9.080,81.8916
9.090,76.2046
9.100,80.1815
9.110,83.2481
9.120,70.9085
9.130,80.7259
9.140,83.2915
9.150,72.6908
9.160,83.3912
9.170,83.7768
9.180,72.0290
9.190,77.3908
9.200,83.3655
9.210,75.2436
9.220,69.5709
9.230,80.4157
9.240,72.5497
9.250,71.6733
9.260,74.0680
9.270,68.0298
9.280,71.7254
9.290,76.9218
9.300,68.6019
9.310,74.5403
9.320,66.4711
9.330,78.8219
9.340,73.6602
9.350,68.9212
9.360,74.3738
9.370,78.7436
9.380,73.4688
9.390,74.0784
9.400,66.3137
9.410,65.2072
9.420,74.9320
9.430,68.9990
9.440,68.9689
9.450,71.0957
9.460,76.5489
9.470,64.5336
9.480,75.3854
9.490,67.8458
9.500,67.8170
9.510,69.7451
9.520,71.2606
9.530,63.7011
9.540,71.7592
9.550,73.0078
9.560,65.8916
9.570,75.2345
9.580,72.4469
9.590,66.0610
9.600,63.4312
9.610,73.3290
9.620,66.9786
9.630,68.0860
9.640,68.1666
9.650,73.4752
9.660,62.6353
9.670,62.1777
9.680,68.5385
9.690,70.0196
9.700,73.7753
9.710,71.7405
9.720,74.3855
9.730,70.5393
9.740,74.5865
9.750,67.6920
9.760,69.6245
9.770,69.6836
9.780,67.3630
9.790,63.9147
9.800,75.7848
9.810,68.2916
9.820,70.2790
9.830,64.2717
9.840,74.7963
9.850,75.2574
9.860,71.9449
9.870,77.9372
9.880,75.1340
9.890,75.3510
9.900,64.8761
9.910,66.9416
9.920,78.3411
9.930,66.1395
9.940,72.7616
9.950,68.2836
9.960,78.5486
9.970,75.5956
9.980,69.4221
9.990,77.1739
10.000,67.4216
10.010,68.1711
10.020,73.1889
10.030,79.1864
10.040,76.2295
10.050,69.7114
10.060,76.4908
10.070,70.5352
10.080,74.0274
10.090,79.7474
10.100,78.0025
10.110,81.5121
10.120,72.8924
10.130,79.5237
10.140,73.9888
10.150,75.1737
10.160,78.8170
10.170,73.0205
10.180,82.0387
10.190,85.2339
10.200,85.4631
10.210,82.4601
10.220,85.4207
10.230,81.5953
10.240,83.7341
10.250,83.4578
10.260,85.4822
10.270,77.7504
10.280,74.3210
10.290,84.5573
10.300,83.9203
10.310,81.6182
10.320,74.6910
10.330,84.4188
10.340,80.1077
10.350,78.9727
10.360,84.5851
10.370,78.4242
10.380,82.4977
10.390,81.6401
10.400,85.5117
10.410,80.7078
10.420,84.0804
10.430,77.8619
10.440,82.9919
10.450,73.9682
10.460,86.7159
10.470,75.9986
10.480,76.6265
10.490,72.5781
10.500,85.2674
10.510,80.5772
10.520,82.0350
10.530,73.2347
10.540,79.0854
10.550,75.4016
10.560,82.6175
10.570,80.9678
10.580,70.8323
10.590,73.4420
10.600,79.5389
10.610,77.4942
10.620,75.8432
10.630,81.5476
10.640,72.2307
10.650,71.9617
10.660,68.6834
10.670,70.1306
10.680,72.6328
10.690,74.8871
10.700,73.0893
10.710,68.7267
10.720,67.4525
10.730,72.5201
10.740,73.5487
10.750,80.7176
10.760,76.8814
10.770,75.3064
10.780,77.6087
10.790,76.2655
10.800,78.8144
10.810,74.4572
10.820,76.2414
10.830,78.0729
10.840,65.0155
10.850,69.0920
10.860,64.8071
10.870,63.9453
10.880,75.2207
10.890,69.3407
10.900,66.3244
10.910,75.4638
10.920,75.8361
10.930,73.4497
10.940,75.8102
10.950,75.4883
10.960,70.4299
10.970,74.3533
10.980,70.1015
10.990,68.0907
11.000,76.1478
11.010,62.3918
11.020,74.2475
11.030,64.8484
11.040,73.3724
11.050,63.6771
11.060,62.8324
11.070,67.9163
11.080,73.5986
11.090,67.6961
11.100,69.4589
11.110,63.9724
11.120,72.9698
11.130,71.6205
11.140,62.8054
11.150,67.4211
11.160,73.0256
11.170,74.9494
11.180,75.5790
11.190,73.7401
11.200,66.0701
11.210,67.9652
11.220,68.4691
11.230,68.2054
11.240,71.7555
11.250,75.5953
11.260,71.4096
11.270,66.1374
11.280,67.2276
11.290,69.2015
11.300,75.0690
11.310,70.4892
11.320,67.8184
11.330,78.4389
11.340,69.6750
11.350,73.0160
11.360,73.6510
11.370,67.7309
11.380,66.2822
11.390,78.8070
11.400,71.0261
11.410,70.8773
11.420,72.3417
11.430,73.4432
11.440,77.4164
11.450,70.5114
11.460,71.9233
11.470,72.1518
11.480,78.3625
11.490,76.9944
11.500,82.2088
11.510,78.1123
11.520,83.9346
11.530,78.0687
11.540,83.1625
11.550,81.3388
11.560,80.6106
11.570,76.6206
11.580,82.3797
11.590,79.5428
11.600,77.1872
11.610,81.2207
11.620,80.3649
11.630,76.8350
11.640,84.0398
11.650,84.7373
11.660,74.4923
11.670,85.1966
11.680,77.4879
11.690,78.3104
11.700,81.7092
11.710,73.3510
11.720,80.8710
11.730,83.8908
11.740,79.4437
11.750,84.1550
11.760,78.3148
11.770,78.8771
11.780,80.6950
11.790,87.6666
11.800,87.5936
11.810,79.5714
11.820,80.7722
11.830,74.1388
11.840,82.2883
11.850,85.4762
11.860,78.2041
11.870,77.3150
11.880,80.3310
11.890,82.6380
11.900,73.6660
11.910,84.7732
11.920,80.8867
11.930,80.7482
11.940,76.4884
11.950,73.9056
11.960,85.5790
11.970,80.9156
11.980,71.4797
11.990,72.9670
12.000,78.7835
12.010,74.7303
12.020,71.3980
12.030,80.0208
12.040,77.7240
12.050,78.8199
12.060,70.1292
12.070,78.4091
12.080,69.5875
12.090,72.2737
12.100,73.2048
12.110,69.5407
12.120,69.5747
12.130,77.8406
12.140,80.0725
12.150,75.8545
12.160,75.7322
12.170,68.6275
12.180,79.8392
12.190,70.1325
12.200,77.7006
12.210,73.5837
12.220,75.2402
12.230,72.4891
12.240,74.6662
12.250,65.6474
12.260,70.0404
12.270,74.6817
12.280,78.5944
12.290,65.0564
12.300,65.6266
12.310,66.8632
12.320,67.5249
12.330,71.2827
12.340,64.1486
12.350,72.8672
12.360,71.8310
12.370,74.9007
12.380,64.6323
12.390,63.6473
12.400,64.6902
12.410,71.0462
12.420,68.3738
12.430,67.3263
12.440,63.3582
12.450,69.0450
12.460,74.4631
12.470,63.9176
12.480,73.2696
12.490,63.4024
12.500,68.7354
12.510,63.1524
12.520,63.6024
12.530,76.1388
12.540,75.7460
12.550,64.7521
12.560,72.3046
12.570,70.1861
12.580,66.0506
12.590,68.3859
12.600,62.7523
12.610,67.4329
12.620,70.3181
12.630,73.9068
12.640,74.5603
12.650,63.8380
12.660,69.8760
12.670,74.8429
12.680,76.8016
12.690,64.2807
12.700,72.2482
12.710,78.5826
12.720,70.2116
12.730,75.0416
12.740,70.4901
12.750,75.8976
12.760,77.7915
12.770,79.0881
12.780,66.3193
12.790,76.6892
12.800,71.8979
12.810,75.3055
12.820,74.9785
12.830,73.0308
12.840,68.6655
12.850,77.6330
12.860,77.3001
12.870,78.7596
12.880,74.4072
12.890,77.9210
12.900,70.8544
12.910,83.1437
12.920,73.6195
12.930,82.0923
12.940,73.0291
12.950,84.1834
12.960,71.1654
12.970,76.6935
12.980,72.0804
12.990,75.3522
13.000,83.5075
13.010,82.7425
13.020,75.9881
13.030,82.3855
13.040,82.8564
13.050,85.4867
13.060,79.0563
13.070,86.8786
13.080,75.1220
13.090,79.4543
13.100,80.1644
13.110,83.1936
13.120,82.6970
13.130,83.3600
13.140,83.8960
13.150,78.7296
13.160,78.2811
13.170,84.4508
13.180,84.3625
13.190,74.7322
13.200,79.2814
13.210,87.1242
13.220,75.9873
13.230,83.1983
13.240,86.1683
13.250,83.4100
13.260,76.7327
13.270,84.7058
13.280,84.6657
13.290,80.1464
13.300,83.4034
13.310,75.0047
13.320,85.1625
13.330,75.2864
13.340,76.1884
13.350,75.5177
13.360,84.9798
13.370,73.1735
13.380,76.5421
13.390,83.6345
13.400,76.7504
13.410,74.3195
13.420,82.1025
13.430,72.2174
13.440,76.4680
13.450,74.5405
13.460,75.2912
13.470,70.8446
13.480,83.5232
13.490,77.8467
13.500,70.1851
13.510,83.7874
13.520,73.2133
13.530,71.0653
13.540,69.2440
13.550,70.3259
13.560,73.1078
13.570,79.0114
13.580,76.4211
13.590,77.7716
13.600,78.0287
13.610,81.0816
13.620,74.5911
13.630,75.4715
13.640,80.2942
13.650,72.4007
13.660,79.1139
13.670,70.1537
13.680,76.7892
13.690,66.8479
13.700,70.4651
13.710,75.2636
13.720,67.6931
13.730,76.9555
13.740,75.0343
13.750,65.6413
13.760,72.3529
13.770,72.2840
13.780,73.0842
13.790,71.5241
13.800,71.0228
13.810,67.9912
13.820,64.1716
13.830,72.4232
13.840,76.7631
13.850,75.9843
13.860,74.6071
13.870,66.6530
13.880,67.7267
13.890,62.5810
13.900,65.5062
13.910,70.1211
13.920,70.1741
13.930,65.8541
13.940,69.1169
13.950,62.4416
13.960,69.8638
13.970,63.6065
13.980,68.7989
13.990,74.9158
14.000,74.9124
14.010,75.1022
14.020,74.4943
14.030,74.8490
14.040,73.0088
14.050,67.8452
14.060,71.0584
14.070,74.5846
14.080,69.6280
14.090,77.5383
14.100,68.4582
14.110,75.5245
14.120,65.4728
14.130,74.5757
14.140,70.1281
14.150,73.4746
14.160,71.5619
14.170,77.7331
14.180,72.0442
14.190,78.9003
14.200,72.5549
14.210,78.8290
14.220,72.9720
14.230,72.2183
14.240,76.0357
14.250,76.9889
14.260,80.1580
14.270,68.1881
14.280,74.2559
14.290,81.5121
14.300,82.5866
14.310,70.9952
14.320,75.8971
14.330,73.1147
14.340,76.8242
14.350,80.4412
14.360,81.5614
14.370,72.5170
14.380,75.3990
14.390,71.6124
14.400,79.6706
14.410,85.0261
14.420,71.7080
14.430,80.4250
14.440,81.2610
14.450,75.3213
14.460,83.7075
14.470,81.7755
14.480,77.4280
14.490,84.8573
14.500,73.5863
14.510,73.5477
14.520,82.6051
14.530,77.6358
14.540,82.8273
14.550,79.7774
14.560,83.9055
14.570,74.0008
14.580,85.3381
14.590,76.5558
14.600,79.9493
14.610,83.2354
14.620,74.5337
14.630,82.0173
14.640,77.9301
14.650,86.9463
14.660,82.2219
14.670,75.6382
14.680,76.8666
14.690,77.9130
14.700,85.0179
14.710,87.8199
14.720,74.8550
14.730,81.2858
14.740,78.5746
14.750,76.4124
14.760,74.5257
14.770,79.3367
14.780,85.3309
14.790,80.8430
14.800,85.0597
14.810,73.7123
14.820,80.1985
14.830,84.0858
14.840,85.0582
14.850,78.6762
14.860,79.5755
14.870,77.8940
14.880,73.7557
14.890,79.7993
14.900,78.2565
14.910,77.2215
14.920,72.0384
14.930,74.4416
14.940,83.4508
14.950,80.3245
14.960,74.1063
14.970,69.9177
14.980,69.9727
14.990,79.4696
15.000,69.6874
15.010,71.9555
15.020,75.5084
15.030,81.1861
15.040,79.2610
15.050,75.1295
15.060,83.6310
15.070,80.3217
15.080,85.5656
15.090,89.4541
15.100,80.1545
15.110,91.5587
15.120,84.8888
15.130,95.9265
15.140,95.5792
15.150,93.8819
15.160,90.9586
15.170,101.4248
15.180,95.1008
15.190,91.3956
15.200,103.3195
15.210,105.3369
15.220,95.3000
15.230,101.0604
15.240,108.8749
15.250,102.1563
15.260,98.2073
15.270,107.4837
15.280,105.1899
15.290,106.5567
15.300,110.0838
15.310,104.9358
15.320,108.9225
15.330,117.0923
15.340,115.5417
15.350,119.2838
15.360,116.8629
15.370,118.6395
15.380,120.2118
15.390,122.1808
15.400,119.2120
15.410,122.2230
15.420,120.6329
15.430,123.6809
15.440,121.4012
15.450,128.1018
15.460,132.7004
15.470,129.9141
15.480,134.0833
15.490,130.8062
15.500,138.3908
15.510,127.6232
15.520,131.0393
15.530,136.6651
15.540,139.8634
15.550,140.2848
15.560,133.5795
15.570,144.7039
15.580,139.7697
15.590,144.7522
15.600,144.6895
15.610,143.1063
15.620,142.6627
15.630,144.9194
15.640,153.2065
15.650,147.0401
15.660,148.1686
15.670,150.5154
15.680,152.3879
15.690,149.9085
15.700,151.3974
15.710,159.1050
15.720,151.1180
15.730,155.9095
15.740,159.2610
15.750,155.4645
15.760,161.4700
15.770,159.3030
15.780,167.4366
15.790,165.3228
15.800,170.2039
15.810,167.9664
15.820,165.9931
15.830,169.8196
15.840,169.0919
15.850,168.5715
15.860,172.5167
15.870,172.8936
15.880,177.2391
15.890,179.5198
15.900,173.0492
15.910,178.2001
15.920,177.0221
15.930,179.0916
15.940,187.8353
15.950,178.4674
15.960,183.1766
15.970,182.7722
15.980,188.6725
15.990,184.7446
16.000,183.9107
16.010,183.2670
16.020,184.7205
16.030,196.1094
16.040,190.8781
16.050,196.0666
16.060,186.6424
16.070,195.2370
16.080,195.2135
16.090,185.9474
16.100,188.3733
16.110,189.9036
16.120,184.1651
16.130,196.0278
16.140,187.3907
16.150,190.8268
16.160,185.8394
16.170,193.3613
16.180,193.9415
16.190,196.7147
16.200,189.9217
16.210,183.5765
16.220,189.5944
16.230,195.8545
16.240,186.3598
16.250,187.0404
16.260,194.5296
16.270,184.0955
16.280,192.1812
16.290,189.8240
16.300,196.2127
16.310,194.9237
16.320,188.5250
16.330,194.0185
16.340,195.7009
16.350,192.8010
16.360,188.5799
16.370,188.9776
16.380,186.5291
16.390,189.8151
16.400,192.0313
16.410,193.3494
16.420,193.6886
16.430,192.0221
16.440,191.1167
16.450,188.1351
16.460,194.6348
16.470,193.5354
16.480,188.0893
16.490,183.7552
16.500,185.2983
16.510,190.5836
16.520,196.5530
16.530,188.0225
16.540,184.6477
16.550,192.5628
16.560,190.9005
16.570,190.5184
16.580,188.5428
16.590,186.6179
16.600,186.5614
16.610,190.1035
16.620,183.5936
16.630,195.4574
16.640,182.8850
16.650,188.0869
16.660,186.4779
16.670,194.0616
16.680,196.7959
16.690,191.6088
16.700,190.7354
16.710,188.1718
16.720,185.8608
16.730,194.4801
16.740,184.9369
16.750,195.0694
16.760,197.1668
16.770,189.9673
16.780,183.2394
16.790,194.6630
16.800,191.9001
16.810,196.9754
16.820,183.3796
16.830,195.2224
16.840,194.4801
16.850,187.9377
16.860,192.0284
16.870,196.5892
16.880,196.1021
16.890,185.4365
16.900,187.3260
16.910,192.8941
16.920,187.0980
16.930,191.2315
16.940,192.5524
16.950,193.3438
16.960,183.2429
16.970,183.4323
16.980,195.2583
16.990,196.7725
17.000,66.7070
17.010,76.4135
17.020,77.4371
17.030,71.5701
17.040,80.3601
17.050,73.0461
17.060,67.2137
17.070,73.8463
17.080,69.3521
17.090,73.3956
17.100,76.0479
17.110,71.0738
17.120,74.4524
17.130,71.3079
17.140,74.8610
17.150,81.9866
17.160,81.6914
17.170,83.7036
17.180,70.4775
17.190,80.8353
17.200,82.3027
17.210,77.3127
17.220,80.1569
17.230,73.2837
17.240,81.7842
17.250,83.0414
17.260,82.7172
17.270,78.8308
17.280,77.2266
17.290,74.9020
17.300,78.6787
17.310,86.0494
17.320,85.5450
17.330,83.2293
17.340,84.1632
17.350,78.4589
17.360,82.4145
17.370,83.3167
17.380,78.3549
17.390,86.5144
17.400,77.5807
17.410,77.6691
17.420,85.8611
17.430,82.1847
17.440,87.2750
17.450,77.4176
17.460,86.1048
17.470,88.6769
17.480,86.5933
17.490,81.6744
17.500,76.6031
17.510,86.7183
17.520,87.4611
17.530,80.1485
17.540,75.3438
17.550,86.2795
17.560,81.4736
17.570,87.2008
17.580,81.4138
17.590,79.7272
17.600,78.2385
17.610,80.3815
17.620,76.0303
17.630,78.4014
17.640,83.8675
17.650,77.3038
17.660,87.4647
17.670,80.9078
17.680,75.6418
17.690,84.7370
17.700,75.5199
17.710,80.3820
17.720,83.4666
17.730,75.3372
17.740,79.1643
17.750,84.0853
17.760,85.5083
17.770,85.1295
17.780,85.1870
17.790,82.1725
17.800,77.5919
17.810,73.6396
17.820,79.6967
17.830,72.0421
17.840,72.6178
17.850,72.8612
17.860,77.4875
17.870,77.0251
17.880,76.1988
17.890,72.3109
17.900,77.4798
17.910,80.9498
17.920,75.7753
17.930,81.5617
17.940,73.3469
17.950,70.4880
17.960,73.8140
17.970,78.2474
17.980,80.4519
17.990,75.2904
18.000,76.4513
18.010,71.7913
18.020,70.3023
18.030,75.0596
18.040,74.6730
18.050,77.4838
18.060,67.2255
18.070,66.2054
18.080,67.6342
18.090,66.2120
18.100,76.7030
18.110,67.2801
18.120,72.6597
18.130,77.4263
18.140,64.2106
18.150,77.4976
18.160,64.6833
18.170,70.0754
18.180,63.7637
18.190,76.7255
18.200,72.3824
18.210,75.2025
18.220,71.6862
18.230,64.9159
18.240,73.5595
18.250,64.9114
18.260,65.2862
18.270,68.2000
18.280,75.9838
18.290,66.4484
18.300,77.3216
18.310,77.5053
18.320,73.3315
18.330,64.3899
18.340,71.0726
18.350,76.5587
18.360,65.1721
18.370,74.3480
18.380,70.5457
18.390,77.7359
18.400,76.4420
18.410,66.3404
18.420,67.2669
18.430,66.8930
18.440,66.9376
18.450,73.7293
18.460,69.5527
18.470,69.7037
18.480,68.8418
18.490,68.4254
18.500,68.7516
18.510,69.2179
18.520,76.1104
18.530,78.1121
18.540,75.1584
18.550,81.6010
18.560,79.5528
18.570,76.2667
18.580,74.5683
18.590,71.8617
18.600,74.4577
18.610,77.7573
18.620,81.4039
18.630,80.6597
18.640,77.4790
18.650,77.4673
18.660,82.4114
18.670,79.1351
18.680,77.1696
18.690,77.3909
18.700,76.4174
18.710,80.6875
18.720,82.2102
18.730,77.8811
18.740,77.3940
18.750,87.1489
18.760,81.4591
18.770,79.0849
18.780,84.1915
18.790,79.9617
18.800,79.6937
18.810,88.1396
18.820,78.8387
18.830,77.2674
18.840,74.8566
18.850,88.3887
18.860,81.8411
18.870,79.0678
18.880,88.6964
18.890,80.4551
18.900,79.3800
18.910,86.4586
18.920,81.3954
18.930,79.9350
18.940,78.5063
18.950,83.6588
18.960,87.9547
18.970,75.1371
18.980,79.0784
18.990,74.9782
19.000,77.9249
19.010,83.7128
19.020,88.2919
19.030,83.7813
19.040,88.6916
19.050,79.1487
19.060,80.6709
19.070,84.0063
19.080,75.9061
19.090,80.3382
19.100,73.7610
19.110,81.7405
19.120,81.3660
19.130,82.3786
19.140,80.4682
19.150,86.4544
19.160,76.2638
19.170,79.0213
19.180,80.3333
19.190,85.7890
19.200,71.7843
19.210,71.8670
19.220,78.1899
19.230,71.1436
19.240,79.7478
19.250,74.4237
19.260,77.2208
19.270,82.7638
19.280,72.5983
19.290,77.5777
19.300,75.9985
19.310,74.4802
19.320,70.8996
19.330,68.6865
19.340,78.1262
19.350,69.1984
19.360,73.4948
19.370,71.4167
19.380,70.4400
19.390,72.2066
19.400,77.0887
19.410,77.9723
19.420,70.1134
19.430,74.9400
19.440,70.5024
19.450,79.2222
19.460,79.4052
19.470,78.2215
19.480,66.6416
19.490,71.5677
19.500,68.1242
19.510,65.7052
19.520,67.2439
19.530,73.1408
19.540,67.4476
19.550,67.6607
19.560,69.0511
19.570,76.1573
19.580,66.0783
19.590,71.4475
19.600,65.1719
19.610,68.7830
19.620,69.7817
19.630,77.3533
19.640,74.3536
19.650,67.0898
19.660,67.2650
19.670,69.2082
19.680,73.8185
19.690,75.1262
19.700,72.3744
19.710,74.5842
19.720,72.3326
19.730,71.0271
19.740,70.0616
19.750,69.7419
19.760,70.4434
19.770,70.5097
19.780,74.5051
19.790,73.4623
19.800,66.0104
19.810,71.6281
19.820,77.6243
19.830,78.3084
19.840,76.5346
19.850,68.9877
19.860,78.2959
19.870,78.3298
19.880,80.5532
19.890,72.6959
19.900,72.0303
19.910,72.1792
19.920,79.4588
19.930,82.1760
19.940,75.9339
19.950,70.4281
19.960,80.8145
19.970,81.8721
19.980,71.8504
19.990,72.9593
20.000,75.3575
20.010,72.7195
20.020,78.1764
20.030,79.8484
20.040,81.1520
20.050,80.8801
20.060,83.3648
20.070,80.8160
20.080,80.7855
20.090,75.3233
20.100,79.3179
20.110,74.9104
20.120,76.8520
20.130,79.6283
20.140,85.8205
20.150,73.9739
20.160,75.5937
20.170,79.5662
20.180,84.0619
20.190,82.9207
20.200,82.4638
20.210,76.3563
20.220,83.4557
20.230,84.1654
20.240,87.1620
20.250,80.4021
20.260,84.3172
20.270,76.3075
20.280,83.9084
20.290,88.6885
20.300,83.7780
20.310,79.4586
20.320,84.2033
20.330,79.1180
20.340,76.3131
20.350,83.7262
20.360,87.9045
20.370,76.8039
20.380,86.9280
20.390,88.5549
20.400,80.3573
20.410,82.8654
20.420,82.7773
20.430,85.1406
20.440,87.9757
20.450,82.9926
20.460,85.3750
20.470,84.9213
20.480,77.0360
20.490,85.3933
20.500,80.6014
20.510,82.6823
20.520,87.7106
20.530,74.0810
20.540,86.7559
20.550,86.5892
20.560,75.8754
20.570,82.3885
20.580,75.4386
20.590,86.3977
20.600,76.2405
20.610,83.4891
20.620,72.4648
20.630,80.9307
20.640,79.1777
20.650,80.8077
20.660,76.3183
20.670,82.5658
20.680,74.5220
20.690,73.0142
20.700,73.8711
20.710,80.7713
20.720,79.7092
20.730,70.5636
20.740,69.9810
20.750,80.7611
20.760,78.5922
20.770,78.0706
20.780,80.2396
20.790,72.3086
20.800,75.1811
20.810,67.8122
20.820,72.4601
20.830,78.7936
20.840,68.9264
20.850,69.4845
20.860,76.0959
20.870,72.3639
20.880,75.9347
20.890,73.5652
20.900,71.5664
20.910,77.4860
20.920,77.7295
20.930,77.2502
20.940,67.4492
20.950,70.3499
20.960,73.7923
20.970,73.6912
20.980,73.9980
20.990,68.2399
21.000,77.9226
21.010,74.7317
21.020,71.9081
21.030,76.3905
21.040,68.9839
21.050,71.4531
21.060,74.3087
21.070,72.7406
21.080,69.6873
21.090,75.7415
21.100,73.8991
21.110,76.4784
21.120,73.1240
21.130,75.3707
21.140,78.5523
21.150,76.8885
21.160,70.3891
21.170,72.1189
21.180,74.2132
21.190,69.4660
21.200,78.8732
21.210,69.3911
21.220,69.0426
21.230,66.3107
21.240,75.7941
21.250,71.9350
21.260,76.6157
21.270,80.4588
21.280,71.5630
21.290,69.0059
21.300,72.7945
21.310,76.6699
21.320,73.6830
21.330,74.3641
21.340,75.8771
21.350,72.9488
21.360,69.0844
21.370,79.6398
21.380,72.6675
21.390,71.5231
21.400,75.3556
21.410,72.3041
21.420,73.7350
21.430,80.4863
21.440,71.4678
21.450,79.7469
21.460,81.1446
21.470,85.2254
21.480,71.5349
21.490,72.4890
21.500,79.6642
21.510,74.4192
21.520,77.0697
21.530,79.0465
21.540,78.2539
21.550,77.3914
21.560,79.5699
21.570,79.5690
21.580,87.2547
21.590,82.2113
21.600,77.6730
21.610,78.5734
21.620,83.4347
21.630,75.8469
21.640,88.5904
21.650,80.9049
21.660,76.5544
21.670,83.6321
21.680,85.5816
21.690,76.8773
21.700,75.6949
21.710,87.8196
21.720,80.2481
21.730,81.6852
21.740,86.1954
21.750,79.8057
21.760,78.6062
21.770,87.6562
21.780,87.5690
21.790,84.4741
21.800,79.7620
21.810,78.4328
21.820,79.7847
21.830,77.0253
21.840,76.7792
21.850,87.8061
21.860,87.0105
21.870,77.6177
21.880,88.3662
21.890,84.4575
21.900,79.2814
21.910,84.6211
21.920,77.6644
21.930,84.7048
21.940,81.8205
21.950,78.7315
21.960,79.0896
21.970,77.8848
21.980,77.3840
21.990,85.9370
22.000,86.9786
22.010,81.2300
22.020,75.3128
22.030,79.2648
22.040,73.3277
22.050,82.6293
22.060,80.8782
22.070,78.1762
22.080,80.1926
22.090,76.2743
22.100,73.6847
22.110,79.2493
22.120,74.6636
22.130,72.8540
22.140,82.0297
22.150,78.1311
22.160,74.7670
22.170,81.2246
22.180,78.3561
22.190,78.0690
22.200,74.4559
22.210,81.7780
22.220,70.9844
22.230,69.1419
22.240,72.7814
22.250,80.1823
22.260,79.5395
22.270,79.7777
22.280,74.9696
22.290,78.7408
22.300,69.1802
22.310,79.6187
22.320,78.0245
22.330,67.7773
22.340,70.7649
22.350,66.3728
22.360,71.6886
22.370,74.4385
22.380,67.5735
22.390,78.9991
22.400,66.1089
22.410,69.0179
22.420,74.4038
22.430,77.0313
22.440,71.6442
22.450,77.1099
22.460,78.6068
22.470,66.3891
22.480,71.7180
22.490,78.7169
22.500,66.6578
22.510,78.2307
22.520,69.9277
22.530,74.9757
22.540,66.1373
22.550,65.4055
22.560,69.6956
22.570,66.8005
22.580,74.1945
22.590,74.2048
22.600,72.8790
22.610,66.0903
22.620,74.5199
22.630,79.6054
22.640,65.7356
22.650,74.0519
22.660,77.8504
22.670,78.5663
22.680,78.8598
22.690,70.5065
22.700,81.0474
22.710,70.9658
22.720,68.0107
22.730,79.3065
22.740,70.3990
22.750,73.6661
22.760,71.4365
22.770,77.7102
22.780,71.1204
22.790,77.5124
22.800,82.8889
22.810,81.6422
22.820,70.7078
22.830,81.0876
22.840,79.2909
22.850,74.7612
22.860,82.7787
22.870,71.1514
22.880,76.1804
22.890,83.0012
22.900,76.7419
22.910,71.8306
22.920,78.0707
22.930,74.5576
22.940,74.6493
22.950,86.2792
22.960,75.3460
22.970,87.1801
22.980,74.2805
22.990,87.7010
23.000,78.1741
23.010,75.4922
23.020,85.8593
23.030,82.7941
23.040,80.2786
23.050,79.7770
23.060,88.6727
23.070,89.0801
23.080,88.9841
23.090,82.6519
23.100,82.4110
23.110,77.0516
23.120,81.2806
23.130,82.2157
23.140,85.6158
23.150,90.2868
23.160,87.4930
23.170,78.2536
23.180,79.7086
23.190,81.4758
23.200,76.7188
23.210,89.8250
23.220,84.0571
23.230,78.6317
23.240,86.5898
23.250,76.9657
23.260,85.0205
23.270,89.7548
23.280,88.3829
23.290,88.2464
23.300,89.4902
23.310,77.2586
23.320,77.3678
23.330,87.2714
23.340,88.3687
23.350,84.8981
23.360,77.4015
23.370,86.4939
23.380,86.4552
23.390,77.3026
23.400,86.7832
23.410,79.9111
23.420,80.6774
23.430,74.4213
23.440,80.2648
23.450,86.3959
23.460,84.1300
23.470,78.3837
23.480,78.0611
23.490,83.3584
23.500,86.2888
23.510,80.5982
23.520,75.5444
23.530,84.5719
23.540,74.8307
23.550,75.6943
23.560,75.2379
23.570,75.1543
23.580,74.5914
23.590,75.9151
23.600,81.4870
23.610,80.0711
23.620,71.5756
23.630,78.2943
23.640,74.2920
23.650,72.4455
23.660,69.3031
23.670,75.2855
23.680,72.5341
23.690,82.0528
23.700,79.6762
23.710,70.9862
23.720,80.0736
23.730,68.2379
23.740,73.9281
23.750,77.6894
23.760,79.0500
23.770,78.8888
23.780,77.2830
23.790,71.7975
23.800,70.8912
23.810,76.0431
23.820,76.2726
23.830,68.1658
23.840,73.7692
23.850,72.7806
23.860,78.6054
23.870,76.0642
23.880,72.1354
23.890,74.2633
23.900,65.1182
23.910,77.4002
23.920,66.3470
23.930,71.3882
23.940,71.3664
23.950,65.2616
23.960,77.8789
23.970,73.4380
23.980,75.4059
23.990,69.4501
24.000,78.6963
24.010,71.3956
24.020,65.7983
24.030,72.7079
24.040,79.0898
24.050,79.2243
24.060,77.2832
24.070,75.8517
24.080,71.5929
24.090,72.3977
24.100,78.5758
24.110,80.9028
24.120,77.2094
24.130,81.2707
24.140,78.2364
24.150,72.8037
24.160,69.2662
24.170,82.2069
24.180,78.7209
24.190,81.4875
24.200,75.7051
24.210,72.0314
24.220,78.7848
24.230,72.9677
24.240,72.4712
24.250,70.4701
24.260,82.9135
24.270,80.2350
24.280,73.7048
24.290,77.2666
24.300,80.1811
24.310,84.1110
24.320,81.5216
24.330,73.6291
24.340,75.6753
24.350,75.7135
24.360,75.8844
24.370,81.2723
24.380,87.2013
24.390,82.9075
24.400,76.3683
24.410,80.5679
24.420,81.5165
24.430,75.7388
24.440,80.5889
24.450,85.7253
24.460,88.2285
24.470,75.0377
24.480,79.8212
24.490,80.3754
24.500,81.2985
24.510,82.6341
24.520,80.3840
24.530,83.0208
24.540,83.5928
24.550,83.9528
24.560,83.3767
24.570,83.4308
24.580,84.1600
24.590,85.8011
24.600,79.7208
24.610,82.5521
24.620,89.3561
24.630,79.5571
24.640,81.2187
24.650,77.1712
24.660,81.0365
24.670,85.0618
24.680,78.3110
24.690,88.7832
24.700,79.1443
24.710,86.3280
24.720,85.5435
24.730,79.8397
24.740,79.2454
24.750,78.6218
24.760,76.0033
24.770,89.5246
24.780,88.8778
24.790,76.7036
24.800,85.6654
24.810,81.6187
24.820,83.1823
24.830,75.3957
24.840,88.5758
24.850,82.9518
24.860,79.9530
24.870,77.9982
24.880,81.7299
24.890,82.3712
24.900,76.2798
24.910,74.2850
24.920,80.4383
24.930,73.0023
24.940,85.3545
24.950,82.7957
24.960,82.0658
24.970,81.8764
24.980,75.6225
24.990,80.0525
25.000,79.7151
25.010,78.1614
25.020,74.2844
25.030,79.2548
25.040,72.6228
25.050,72.8473
25.060,81.3646
25.070,73.9299
25.080,72.1627
25.090,70.6891
25.100,75.3225
25.110,81.9610
25.120,73.2646
25.130,72.1484
25.140,81.9998
25.150,81.4595
25.160,80.9213
25.170,67.9919
25.180,74.8735
25.190,74.5784
25.200,70.3074
25.210,72.7420
25.220,68.2949
25.230,68.1472
25.240,71.0482
25.250,80.0207
25.260,72.5100
25.270,66.1415
25.280,78.4852
25.290,72.4559
25.300,70.6952
25.310,79.6151
25.320,72.0350
25.330,74.6752
25.340,70.6207
25.350,73.1201
25.360,76.2825
25.370,68.1740
25.380,67.0745
25.390,77.5136
25.400,66.7450
25.410,77.1906
25.420,79.2194
25.430,71.5648
25.440,66.5072
25.450,75.8745
25.460,76.5702
25.470,74.5722
25.480,78.7931
25.490,69.1485
25.500,80.6473
25.510,79.8442
25.520,74.9165
25.530,73.0660
25.540,73.8211
25.550,69.6331
25.560,81.0453
25.570,79.1645
25.580,76.4218
25.590,78.0175
25.600,79.2663
25.610,82.8701
25.620,76.3900
25.630,77.0173
25.640,70.8854
25.650,72.8681
25.660,77.3462
25.670,81.2804
25.680,72.5392
25.690,75.6020
25.700,73.9037
25.710,76.2340
25.720,73.4239
25.730,72.1929
25.740,84.0444
25.750,77.6325
25.760,86.0254
25.770,80.4546
25.780,84.6563
25.790,84.0143
25.800,85.0617
25.810,77.6775
25.820,81.1542
25.830,86.6398
25.840,80.7180
25.850,85.7798
25.860,79.5444
25.870,75.1838
25.880,79.1069
25.890,80.4082
25.900,85.8493
25.910,89.7392
25.920,76.1706
25.930,86.4793
25.940,88.8155
25.950,85.9306
25.960,88.4893
25.970,80.1668
25.980,84.7635
25.990,86.3789
26.000,84.9164
26.010,79.7506
26.020,76.9324
26.030,83.8924
26.040,85.0521
26.050,89.0534
26.060,77.6657
26.070,89.6011
26.080,80.8906
26.090,83.3111
26.100,84.8631
26.110,78.9806
26.120,77.4570
26.130,80.8855
26.140,83.3134
26.150,78.8811
26.160,88.8654
26.170,86.8288
26.180,87.6318
26.190,85.2198
26.200,78.2944
26.210,87.7360
26.220,78.3843
26.230,77.2439
26.240,79.9407
26.250,87.8560
26.260,84.7870
26.270,75.4140
26.280,81.6868
26.290,77.3683
26.300,84.5827
26.310,79.1116
26.320,82.0065
26.330,77.1988
26.340,85.4771
26.350,81.8829
26.360,87.3287
26.370,81.0396
26.380,82.8634
26.390,81.9999
26.400,82.5618
26.410,79.3988
26.420,83.2012
26.430,79.6814
26.440,81.3655
26.450,74.5281
26.460,79.3753
26.470,79.0981
26.480,82.1903
26.490,76.0976
26.500,80.8757
26.510,72.9942
26.520,83.3482
26.530,72.9465
26.540,77.3292
26.550,77.6963
26.560,74.8435
26.570,77.6997
26.580,69.5678
26.590,68.6816
26.600,70.3614
26.610,72.6062
26.620,76.6932
26.630,81.0087
26.640,74.9915
26.650,71.9555
26.660,76.5132
26.670,69.0317
26.680,67.0199
26.690,73.5749
26.700,67.3446
26.710,67.5680
26.720,70.8707
26.730,68.9650
26.740,76.8694
26.750,72.7180
26.760,73.5036
26.770,72.7323
26.780,65.9765
26.790,76.1504
26.800,78.5254
26.810,69.8329
26.820,72.8689
26.830,68.5975
26.840,67.8992
26.850,78.8498
26.860,77.9234
26.870,79.4403
26.880,78.6373
26.890,73.4383
26.900,79.6811
26.910,74.4894
26.920,80.6430
26.930,80.0925
26.940,75.9094
26.950,73.3137
26.960,78.3907
26.970,68.8224
26.980,70.6821
26.990,72.9049
27.000,71.9549
27.010,72.4433
27.020,76.6112
27.030,68.8370
27.040,70.6551
27.050,76.2327
27.060,77.4557
27.070,78.6198
27.080,77.2503
27.090,78.1421
27.100,71.5527
27.110,83.8840
27.120,76.9490
27.130,76.0996
27.140,83.4941
27.150,76.3537
27.160,84.7257
27.170,80.2090
27.180,80.2256
27.190,75.7847
27.200,83.2394
27.210,81.1990
27.220,82.7944
27.230,74.1638
27.240,82.2311
27.250,78.7491
27.260,77.8768
27.270,82.4223
27.280,87.9315
27.290,88.2319
27.300,77.2432
27.310,80.5622
27.320,77.6007
27.330,77.6299
27.340,80.5356
27.350,77.1042
27.360,88.3843
27.370,86.2469
27.380,85.2206
27.390,90.2680
27.400,88.0118
27.410,78.0885
27.420,82.4163
27.430,83.0078
27.440,81.8190
27.450,87.6256
27.460,82.6669
27.470,81.8872
27.480,89.1629
27.490,81.3436
27.500,80.9505
27.510,81.8169
27.520,88.8995
27.530,84.1860
27.540,87.2563
27.550,81.3554
27.560,89.9180
27.570,82.6523
27.580,82.5151
27.590,88.6187
27.600,90.5470
27.610,84.3887
27.620,89.1858
27.630,84.6794
27.640,90.6805
27.650,80.8916
27.660,89.0112
27.670,83.2464
27.680,89.3684
27.690,75.5926
27.700,83.2038
27.710,88.6518
27.720,79.3285
27.730,74.7673
27.740,85.1342
27.750,86.0009
27.760,81.1740
27.770,79.4217
27.780,84.1571
27.790,87.0230
27.800,77.5894
27.810,75.1232
27.820,76.7936
27.830,86.6365
27.840,86.2755
27.850,81.6562
27.860,77.3231
27.870,79.5375
27.880,83.4687
27.890,71.1253
27.900,76.5413
27.910,80.8577
27.920,72.9413
27.930,83.9114
27.940,79.5180
27.950,75.7245
27.960,77.4130
27.970,80.4585
27.980,71.3427
27.990,77.5409
28.000,74.9014
28.010,81.0327
28.020,75.0288
28.030,77.2433
28.040,73.2474
28.050,70.1514
28.060,78.0719
28.070,68.1511
28.080,68.1412
28.090,74.2859
28.100,73.0391
28.110,76.2634
28.120,77.2749
28.130,72.1229
28.140,69.6975
28.150,77.5282
28.160,76.8607
28.170,69.6625
28.180,70.3958
28.190,78.7780
28.200,75.7750
28.210,76.5699
28.220,66.3040
28.230,80.1757
28.240,75.3110
28.250,75.6994
28.260,74.5077
28.270,70.0463
28.280,67.6092
28.290,72.3133
28.300,68.7110
28.310,67.9337
28.320,73.6816
28.330,67.7282
28.340,70.6564
28.350,77.3730
28.360,68.6139
28.370,76.6127
28.380,81.5085
28.390,72.9453
28.400,76.1452
28.410,78.5677
28.420,72.4928
28.430,79.2374
28.440,81.3907
28.450,77.2268
28.460,74.6692
28.470,71.0333
28.480,78.2392
28.490,83.7221
28.500,73.0462
28.510,79.3439
28.520,79.8019
28.530,75.9648
28.540,80.5711
28.550,80.2497
28.560,79.7032
28.570,72.7255
28.580,82.9877
28.590,79.4910
28.600,81.2015
28.610,83.7049
28.620,77.9537
28.630,78.8797
28.640,82.4473
28.650,85.9364
28.660,82.2987
28.670,82.3926
28.680,84.2052
28.690,86.1370
28.700,82.6638
28.710,82.6583
28.720,85.9700
28.730,85.6323
28.740,90.0130
28.750,84.7144
28.760,85.8335
28.770,89.2856
28.780,84.1421
28.790,86.2721
28.800,82.6970
28.810,79.3013
28.820,87.8615
28.830,85.1880
28.840,86.6564
28.850,87.7503
28.860,82.0625
28.870,86.6087
28.880,90.6754
28.890,88.7568
28.900,85.9869
28.910,85.4484
28.920,78.1129
28.930,89.3571
28.940,79.0627
28.950,80.7371
28.960,86.0042
28.970,79.5819
28.980,89.3872
28.990,77.9189
29.000,89.4247
29.010,82.2959
29.020,79.7958
29.030,85.6330
29.040,89.0504
29.050,88.7363
29.060,83.1393
29.070,83.4818
29.080,86.4030
29.090,86.6127
29.100,83.3551
29.110,78.2759
29.120,82.4399
29.130,87.9330
29.140,80.2035
29.150,78.7266
29.160,79.2080
29.170,80.7235
29.180,80.6180
29.190,85.3159
29.200,77.9868
29.210,80.7475
29.220,75.8436
29.230,87.7246
29.240,82.6982
29.250,86.0437
29.260,73.9364
29.270,77.6083
29.280,84.6807
29.290,75.7253
29.300,79.3103
29.310,72.8700
29.320,78.3120
29.330,73.7520
29.340,74.7520
29.350,79.1627
29.360,81.0548
29.370,79.7393
29.380,73.5157
29.390,70.9780
29.400,71.6926
29.410,75.1189
29.420,73.3545
29.430,80.5979
29.440,70.5374
29.450,70.7356
29.460,70.1407
29.470,71.6818
29.480,76.3642
29.490,77.4411
29.500,76.8812
29.510,78.3842
29.520,76.5323
29.530,78.2145
29.540,79.7715
29.550,68.3617
29.560,75.2298
29.570,77.9551
29.580,79.2571
29.590,80.6921
29.600,72.6355
29.610,76.2381
29.620,73.4887
29.630,79.7867
29.640,67.4413
29.650,76.0310
29.660,70.7821
29.670,66.7491
29.680,68.8002
29.690,74.0668
29.700,76.7762
29.710,67.4925
29.720,67.7995
29.730,69.8935
29.740,74.8728
29.750,81.2517
29.760,74.4792
29.770,70.8800
29.780,81.2495
29.790,75.7874
29.800,72.3419
29.810,76.9979
29.820,75.0457
29.830,81.0390
29.840,77.7664
29.850,71.3550
29.860,78.0173
29.870,71.0908
29.880,74.2352
29.890,79.1185
29.900,78.8858
29.910,72.3717
29.920,84.2576
29.930,82.2167
29.940,83.2178
29.950,71.1702
29.960,72.6063
29.970,72.5155
29.980,77.6000
29.990,77.0149
30.000,83.0042
30.010,85.1412
30.020,84.1723
30.030,90.0424
30.040,80.7367
30.050,82.8236
30.060,86.1819
30.070,88.0762
30.080,83.1348
30.090,84.9828
30.100,97.1418
30.110,91.7664
30.120,87.4091
30.130,91.0850
30.140,100.3787
30.150,102.8581
30.160,93.0296
30.170,102.3564
30.180,104.8073
30.190,105.2331
30.200,98.0306
30.210,102.7498
30.220,109.6420
30.230,110.7031
30.240,112.7468
30.250,108.3877
30.260,113.9559
30.270,112.3209
30.280,113.4798
30.290,117.4374
30.300,110.5867
30.310,115.7903
30.320,117.5601
30.330,121.1521
30.340,124.4726
30.350,121.9482
30.360,115.8146
30.370,126.8942
30.380,123.5597
30.390,129.1077
30.400,125.7498
30.410,135.2239
30.420,128.6188
30.430,136.4789
30.440,131.8117
30.450,139.5174
30.460,137.6010
30.470,130.0021
30.480,131.6220
30.490,144.2758
30.500,138.0700
30.510,147.5817
30.520,145.6542
30.530,139.0073
30.540,149.6661
30.550,142.7371
30.560,149.4032
30.570,154.6021
30.580,144.0000
30.590,145.9937
30.600,156.7015
30.610,157.5484
30.620,148.1504
30.630,152.9852
30.640,152.2492
30.650,154.4784
30.660,152.3436
30.670,160.8267
30.680,165.8106
30.690,166.1818
30.700,167.2898
30.710,166.8519
30.720,160.0177
30.730,172.9003
30.740,165.5062
30.750,168.8423
30.760,175.7495
30.770,172.6243
30.780,176.8025
30.790,175.4905
30.800,170.6091
30.810,173.3936
30.820,182.0654
30.830,177.3919
30.840,180.7992
30.850,186.7234
30.860,179.8268
30.870,186.2869
30.880,190.7281
30.890,190.1325
30.900,185.4565
30.910,181.3671
30.920,185.2296
30.930,190.4295
30.940,190.3845
30.950,190.9269
30.960,197.0664
30.970,190.1794
30.980,197.5066
30.990,204.7003
31.000,193.5254
31.010,199.7968
31.020,196.7785
31.030,196.7082
31.040,199.0950
31.050,194.6087
31.060,198.7947
31.070,199.9969
31.080,195.0844
31.090,201.6204
31.100,205.9395
31.110,198.2680
31.120,201.4956
31.130,196.4693
31.140,199.7767
31.150,194.5660
31.160,204.6236
31.170,199.2082
31.180,196.2570
31.190,198.0118
31.200,196.2307
31.210,202.4220
31.220,202.9027
31.230,196.1061
31.240,203.7057
31.250,202.5807
31.260,200.8167
31.270,192.3308
31.280,198.9160
31.290,195.2093
31.300,203.9514
31.310,195.9762
31.320,196.8456
31.330,195.6487
31.340,196.0332
31.350,198.2628
31.360,200.6460
31.370,194.8970
31.380,201.3521
31.390,195.8985
31.400,205.3644
31.410,197.1808
31.420,199.9245
31.430,193.1359
31.440,206.4211
31.450,203.6072
31.460,198.1539
31.470,193.7183
31.480,196.0557
31.490,202.9717
31.500,203.6029
31.510,201.6053
31.520,204.3554
31.530,193.5640
31.540,198.5641
31.550,203.9012
31.560,196.0742
31.570,197.9550
31.580,195.6372
31.590,206.5564
31.600,200.4602
31.610,202.2663
31.620,201.1117
31.630,205.0075
31.640,205.7716
31.650,203.5766
31.660,195.7791
31.670,200.4797
31.680,195.2886
31.690,203.7398
31.700,198.7370
31.710,194.3080
31.720,206.0414
31.730,193.7455
31.740,205.3956
31.750,194.4660
31.760,204.3805
31.770,198.0540
31.780,203.0655
31.790,197.1248
31.800,203.9562
31.810,196.6707
31.820,198.1733
31.830,198.4076
31.840,192.8285
31.850,198.4436
31.860,199.3972
31.870,198.4309
31.880,203.2805
31.890,193.5103
31.900,203.4189
31.910,196.8519
31.920,200.7909
31.930,196.3752
31.940,206.0726
31.950,206.8313
31.960,196.1903
31.970,199.2683
31.980,206.3101
31.990,197.5459
32.000,80.3576
32.010,77.1097
32.020,82.2043
32.030,81.5729
32.040,79.3016
32.050,77.1636
32.060,85.4591
32.070,86.1642
32.080,80.4511
32.090,87.9454
32.100,80.8408
32.110,79.3312
32.120,76.7048
32.130,78.3779
32.140,85.9875
32.150,74.0793
32.160,76.9858
32.170,78.3839
32.180,77.6953
32.190,82.1750
32.200,85.1293
32.210,84.9258
32.220,83.7796
32.230,83.3777
32.240,82.2093
32.250,78.0927
32.260,80.6217
32.270,76.3349
32.280,81.5122
32.290,79.3143
32.300,70.5621
32.310,76.7563
32.320,74.1872
32.330,82.5523
32.340,77.8264
32.350,69.1424
32.360,81.8092
32.370,81.0105
32.380,81.3580
32.390,68.5478
32.400,68.0581
32.410,81.3425
32.420,74.3479
32.430,72.1700
32.440,75.0727
32.450,79.5749
32.460,68.1774
32.470,80.1821
32.480,80.0048
32.490,67.8428
32.500,74.5368
32.510,70.3062
32.520,79.7630
32.530,69.1782
32.540,74.7943
32.550,73.2422
32.560,67.7856
32.570,71.3025
32.580,77.3213
32.590,71.1745
32.600,80.6730
32.610,70.5117
32.620,68.5367
32.630,80.0187
32.640,69.8639
32.650,76.0265
32.660,75.1042
32.670,78.1748
32.680,77.9312
32.690,77.9268
32.700,69.4995
32.710,70.2072
32.720,76.4226
32.730,79.2519
32.740,79.3557
32.750,78.5338
32.760,80.1114
32.770,78.9859
32.780,80.5098
32.790,82.2446
32.800,81.6036
32.810,73.7163
32.820,84.7466
32.830,79.9604
32.840,78.1077
32.850,80.6771
32.860,86.1650
32.870,83.6613
32.880,79.1683
32.890,75.9826
32.900,77.6715
32.910,83.9303
32.920,75.9067
32.930,78.6969
32.940,87.6534
32.950,82.9774
32.960,84.2635
32.970,80.6838
32.980,78.6311
32.990,84.3783
33.000,84.0390
33.010,85.5827
33.020,84.1909
33.030,86.3615
33.040,89.1893
33.050,85.0175
33.060,90.7735
33.070,82.3955
33.080,89.9850
33.090,91.2094
33.100,91.8355
33.110,82.5019
33.120,82.2533
33.130,85.9340
33.140,86.8825
33.150,79.3983
33.160,83.1514
33.170,83.6092
33.180,90.2868
33.190,86.1056
33.200,89.3136
33.210,84.3178
33.220,87.1522
33.230,90.2498
33.240,84.2355
33.250,90.5802
33.260,83.4709
33.270,83.7593
33.280,84.9028
33.290,89.4527
33.300,78.6440
33.310,89.8686
33.320,87.5072
33.330,78.5849
33.340,86.5272
33.350,84.5288
33.360,92.0439
33.370,77.9057
33.380,91.4771
33.390,82.1929
33.400,89.0254
33.410,82.8065
33.420,79.0472
33.430,77.5442
33.440,90.1382
33.450,86.4637
33.460,77.9973
33.470,76.9876
33.480,82.6021
33.490,77.6911
33.500,85.8204
33.510,86.3290
33.520,84.9905
33.530,75.4163
33.540,87.4520
33.550,87.4798
33.560,84.5267
33.570,80.4506
33.580,80.1555
33.590,81.3393
33.600,85.2924
33.610,82.0294
33.620,79.1184
33.630,71.7319
33.640,85.1534
33.650,81.0427
33.660,75.6268
33.670,82.7999
33.680,80.7616
33.690,78.0418
33.700,75.4080
33.710,77.8245
33.720,72.1563
33.730,74.3501
33.740,82.9913
33.750,72.7076
33.760,79.6496
33.770,73.5370
33.780,79.2329
33.790,76.1936
33.800,68.4579
33.810,74.4736
33.820,82.2865
33.830,69.0102
33.840,80.4699
33.850,68.1965
33.860,72.1175
33.870,70.9234
33.880,74.2855
33.890,72.2441
33.900,74.4834
33.910,75.1722
33.920,73.2730
33.930,75.4645
33.940,79.9660
33.950,72.7233
33.960,67.6504
33.970,77.2218
33.980,74.0998
33.990,76.9259
34.000,77.4487
34.010,77.1861
34.020,81.4591
34.030,76.9626
34.040,75.9111
34.050,70.3625
34.060,80.7371
34.070,68.8936
34.080,69.3086
34.090,72.9882
34.100,78.1891
34.110,73.0619
34.120,69.8312
34.130,78.5437
34.140,83.4484
34.150,77.0934
34.160,72.3605
34.170,75.9401
34.180,78.5424
34.190,71.7135
34.200,77.6698
34.210,84.6654
34.220,73.3565
34.230,84.6650
34.240,73.8421
34.250,79.2804
34.260,76.2206
34.270,83.1259
34.280,81.8142
34.290,86.4084
34.300,77.1275
34.310,79.5538
34.320,81.2654
34.330,83.0713
34.340,84.1910
34.350,88.3859
34.360,78.4273
34.370,89.1933
34.380,80.8824
34.390,83.6602
34.400,87.5560
34.410,78.0974
34.420,79.7177
34.430,83.8694
34.440,81.0602
34.450,90.7335
34.460,87.2408
34.470,86.0682
34.480,87.2275
34.490,79.4365
34.500,89.5892
34.510,91.6064
34.520,83.4098
34.530,92.4719
34.540,82.1544
34.550,85.6569
34.560,92.7637
34.570,82.8518
34.580,87.8403
34.590,89.2160
34.600,80.0466
34.610,86.1950
34.620,86.5793
34.630,88.1761
34.640,79.4432
34.650,90.0993
34.660,83.6208
34.670,89.7455
34.680,84.6026
34.690,81.9566
34.700,80.9148
34.710,91.4020
34.720,83.5267
34.730,90.9493
34.740,82.7529
34.750,88.9504
34.760,87.6873
34.770,82.8660
34.780,80.8090
34.790,88.5888
34.800,88.6040
34.810,87.5630
34.820,86.0650
34.830,82.0923
34.840,91.1249
34.850,77.0948
34.860,83.6426
34.870,87.7390
34.880,82.3379
34.890,84.5317
34.900,83.7672
34.910,86.4072
34.920,84.3341
34.930,87.0544
34.940,82.8202
34.950,81.1476
34.960,76.6860
34.970,78.9960
34.980,77.6439
34.990,87.8097
35.000,81.7808
35.010,81.6992
35.020,79.1158
35.030,81.0207
35.040,79.9235
35.050,72.5760
35.060,74.8102
35.070,73.2360
35.080,74.8188
35.090,84.6629
35.100,72.0356
35.110,74.6559
35.120,71.5836
35.130,73.1891
35.140,83.2224
35.150,79.4805
35.160,78.2235
35.170,72.2902
35.180,75.4610
35.190,82.5843
35.200,78.4257
35.210,78.0307
35.220,80.0137
35.230,75.5054
35.240,82.6172
35.250,77.3716
35.260,77.5456
35.270,71.3604
35.280,70.4492
35.290,71.6480
35.300,72.0333
35.310,80.4202
35.320,76.5685
35.330,77.9276
35.340,74.9102
35.350,69.5405
35.360,68.8193
35.370,72.9415
35.380,71.8839
35.390,76.2967
35.400,77.0650
35.410,70.1871
35.420,81.1401
35.430,76.3976
35.440,79.0524
35.450,79.4825
35.460,79.1952
35.470,69.2194
35.480,80.3283
35.490,71.2330
35.500,76.4838
35.510,72.8636
35.520,71.2056
35.530,83.6054
35.540,73.0336
35.550,83.2519
35.560,72.9634
35.570,74.2831
35.580,72.8257
35.590,84.3051
35.600,81.1846
35.610,78.9843
35.620,73.2958
35.630,75.7311
35.640,73.0861
35.650,78.2159
35.660,75.6811
35.670,84.4196
35.680,78.8017
35.690,76.6723
35.700,80.8343
35.710,83.5056
35.720,75.4219
35.730,76.6583
35.740,81.0663
35.750,84.2252
35.760,79.2344
35.770,82.1775
35.780,87.7020
35.790,84.7359
35.800,86.4092
35.810,87.1135
35.820,81.2037
35.830,86.2992
35.840,89.8364
35.850,78.0461
35.860,87.2946
35.870,86.6504
35.880,87.4472
35.890,86.6465
35.900,79.4974
35.910,90.5323
35.920,84.3617
35.930,80.4505
35.940,83.4862
35.950,83.6812
35.960,91.2481
35.970,84.1169
35.980,87.4376
35.990,79.9277
36.000,88.0157
36.010,83.7868
36.020,82.5787
36.030,85.2346
36.040,92.6209
36.050,93.4388
36.060,80.1968
36.070,92.7657
36.080,91.1414
36.090,93.0435
36.100,90.7982
36.110,90.9189
36.120,84.2288
36.130,85.4283
36.140,88.0179
36.150,83.0003
36.160,88.6558
36.170,82.3025
36.180,85.3699
36.190,84.1893
36.200,79.4761
36.210,81.7293
36.220,92.5080
36.230,78.5252
36.240,87.5681
36.250,85.6619
36.260,91.6509
36.270,77.5800
36.280,87.7779
36.290,89.9382
36.300,81.7516
36.310,86.2850
36.320,80.3542
36.330,78.4136
36.340,81.8407
36.350,76.0575
36.360,83.5534
36.370,77.0249
36.380,87.1791
36.390,77.1498
36.400,86.1964
36.410,81.2360
36.420,76.3072
36.430,81.0867
36.440,75.3644
36.450,79.8725
36.460,83.9440
36.470,73.0483
36.480,80.5667
36.490,78.6895
36.500,85.8182
36.510,85.4359
36.520,75.1126
36.530,72.9312
36.540,85.4012
36.550,77.9390
36.560,79.5588
36.570,79.3507
36.580,74.1918
36.590,70.2757
36.600,71.6970
36.610,73.3932
36.620,82.2073
36.630,72.1441
36.640,73.0823
36.650,77.0231
36.660,81.8506
36.670,77.2937
36.680,79.0305
36.690,73.1201
36.700,81.4669
36.710,69.0348
36.720,72.8472
36.730,77.6045
36.740,76.2026
36.750,71.7113
36.760,81.2318
36.770,69.4836
36.780,74.7376
36.790,69.5270
36.800,68.4159
36.810,78.5549
36.820,81.5018
36.830,72.0988
36.840,72.0079
36.850,72.9481
36.860,82.4050
36.870,69.5371
36.880,73.7503
36.890,70.4720
36.900,70.2998
36.910,72.3598
36.920,77.4043
36.930,79.9791
36.940,70.0347
36.950,83.6338
36.960,76.1657
36.970,75.1690
36.980,74.3631
36.990,72.7253
37.000,78.2967
37.010,84.1631
37.020,83.9916
37.030,84.7056
37.040,80.4439
37.050,77.0252
37.060,85.6237
37.070,81.9416
37.080,84.0209
37.090,86.0094
37.100,80.7495
37.110,78.3006
37.120,79.2995
37.130,83.6019
37.140,76.0870
37.150,88.1170
37.160,86.8773
37.170,84.1594
37.180,84.4621
37.190,88.5987
37.200,85.2196
37.210,87.1290
37.220,87.5990
37.230,88.0546
37.240,89.2697
37.250,81.3291
37.260,79.0329
37.270,79.9193
37.280,91.3608
37.290,81.2993
37.300,89.2285
37.310,80.3063
37.320,82.8620
37.330,79.8516
37.340,85.6270
37.350,89.3359
37.360,84.6094
37.370,86.2203
37.380,84.1916
37.390,85.3659
37.400,86.9069
37.410,84.1664
37.420,87.3649
37.430,82.5167
37.440,91.2351
37.450,92.1617
37.460,86.6290
37.470,92.0505
37.480,87.4046
37.490,81.4189
37.500,91.2711
37.510,83.4841
37.520,92.4984
37.530,90.2911
37.540,84.4074
37.550,83.4133
37.560,83.4013
37.570,90.8528
37.580,80.3452
37.590,79.9903
37.600,90.9123
37.610,91.5106
37.620,87.9420
37.630,90.8689
37.640,91.6688
37.650,78.8950
37.660,84.2359
37.670,80.7212
37.680,86.3096
37.690,79.8812
37.700,89.3151
37.710,91.3270
37.720,89.0556
37.730,91.2620
37.740,85.2826
37.750,76.9941
37.760,86.2916
37.770,78.1722
37.780,80.5729
37.790,87.8306
37.800,80.0802
37.810,80.6031
37.820,80.8227
37.830,76.0116
37.840,80.4062
37.850,77.6232
37.860,80.9255
37.870,78.4214
37.880,76.1790
37.890,84.7215
37.900,73.9399
37.910,74.6162
37.920,76.5385
37.930,77.2792
37.940,82.1628
37.950,85.4325
37.960,82.9359
37.970,85.0238
37.980,84.9585
37.990,83.3018
38.000,82.8505
38.010,80.2173
38.020,71.8709
38.030,76.7792
38.040,83.2564
38.050,70.5141
38.060,73.3633
38.070,78.1566
38.080,82.6779
38.090,73.2530
38.100,82.6186
38.110,79.1836
38.120,81.8751
38.130,71.7891
38.140,73.6347
38.150,69.8858
38.160,78.0715
38.170,78.3882
38.180,71.9492
38.190,73.1495
38.200,82.7446
38.210,82.9268
38.220,74.4265
38.230,72.3242
38.240,70.2959
38.250,79.3659
38.260,78.5091
38.270,72.0427
38.280,74.6567
38.290,73.3874
38.300,69.0850
38.310,81.5166
38.320,78.8094
38.330,80.1443
38.340,74.3319
38.350,71.6369
38.360,75.2671
38.370,79.4927
38.380,78.8717
38.390,82.0029
38.400,80.5043
38.410,76.4198
38.420,74.1934
38.430,76.5628
38.440,82.9167
38.450,80.1118
38.460,84.3049
38.470,80.6041
38.480,77.6189
38.490,75.6313
38.500,78.9819
38.510,85.9245
38.520,83.6648
38.530,76.8778
38.540,87.4148
38.550,87.3231
38.560,87.1823
38.570,80.0868
38.580,88.0709
38.590,76.2802
38.600,87.1146
38.610,89.3237
38.620,81.5350
38.630,76.1346
38.640,82.7027
38.650,86.7013
38.660,76.7385
38.670,82.6617
38.680,87.8324
38.690,80.4477
38.700,89.7666
38.710,85.0563
38.720,83.4480
38.730,85.0108
38.740,84.3378
38.750,89.4417
38.760,85.6444
38.770,79.3979
38.780,83.2905
38.790,87.3920
38.800,79.6828
38.810,84.6699
38.820,91.9523
38.830,90.6827
38.840,93.1095
38.850,89.9901
38.860,93.3724
38.870,81.6844
38.880,91.2811
38.890,92.3246
38.900,91.6749
38.910,84.7416
38.920,91.8627
38.930,88.4931
38.940,82.8548
38.950,82.2780
38.960,93.5666
38.970,91.3173
38.980,90.0247
38.990,87.0361
39.000,83.4137
39.010,88.6322
39.020,86.4485
39.030,81.6902
39.040,92.7155
39.050,86.9766
39.060,87.6731
39.070,82.9867
39.080,79.1557
39.090,81.7503
39.100,83.2513
39.110,79.5469
39.120,87.3776
39.130,91.9496
39.140,89.0937
39.150,91.3061
39.160,84.5385
39.170,91.3737
39.180,80.0502
39.190,87.5005
39.200,80.2573
39.210,89.6790
39.220,84.7579
39.230,77.7474
39.240,81.0644
39.250,81.9624
39.260,76.6098
39.270,78.1373
39.280,88.2244
39.290,83.0887
39.300,77.6329
39.310,81.9432
39.320,87.9107
39.330,85.4412
39.340,78.7734
39.350,85.5980
39.360,83.2880
39.370,80.7798
39.380,74.5789
39.390,76.0668
39.400,72.5936
39.410,75.2589
39.420,73.1720
39.430,72.1834
39.440,74.8077
39.450,77.7022
39.460,77.9649
39.470,83.5745
39.480,72.9060
39.490,81.7868
39.500,71.6999
39.510,79.8815
39.520,81.6115
39.530,77.0719
39.540,72.7243
39.550,77.8827
39.560,72.1853
39.570,75.7493
39.580,71.0422
39.590,82.0391
39.600,80.8976
39.610,73.3673
39.620,79.0731
39.630,75.0255
39.640,77.2769
39.650,80.2328
39.660,80.6237
39.670,79.4695
39.680,81.3501
39.690,71.3037
39.700,82.3449
39.710,75.1283
39.720,74.0024
39.730,81.9879
39.740,82.8212
39.750,78.6090
39.760,76.3197
39.770,74.4675
39.780,80.4016
39.790,79.5147
39.800,76.7591
39.810,80.9513
39.820,74.6747
39.830,83.9275
39.840,76.1003
39.850,83.1827
39.860,72.9345
39.870,79.9094
39.880,76.3960
39.890,80.8685
39.900,79.8716
39.910,84.3068
39.920,80.1581
39.930,81.7952
39.940,79.6345
39.950,78.3557
39.960,76.3088
39.970,75.2776
39.980,75.2750
39.990,82.6032
40.000,86.3211
40.010,84.5099
40.020,77.8515
40.030,82.2647
40.040,89.1269
40.050,80.3587
40.060,82.1574
40.070,83.6851
40.080,77.6546
40.090,82.4738
40.100,82.7702
40.110,91.0682
40.120,85.3840
40.130,84.8576
40.140,92.4830
40.150,79.7704
40.160,86.6810
40.170,89.5758
40.180,79.3467
40.190,90.1329
40.200,90.7806
40.210,81.5065
40.220,84.6228
40.230,93.4111
40.240,80.6792
40.250,84.1980
40.260,87.5903
40.270,83.9828
40.280,88.2733
40.290,84.9408
40.300,81.5847
40.310,93.9382
40.320,93.7568
40.330,84.2657
40.340,84.1982
40.350,85.9139
40.360,94.1664
40.370,84.5294
40.380,91.0769
40.390,86.2614
40.400,83.6673
40.410,83.3042
40.420,91.3780
40.430,82.2021
40.440,93.5335
40.450,88.6320
40.460,94.1274
40.470,92.8998
40.480,87.4000
40.490,91.3799
40.500,88.3323
40.510,85.1043
40.520,79.3115
40.530,89.1973
40.540,90.3743
40.550,86.5237
40.560,83.4731
40.570,91.2354
40.580,84.3704
40.590,84.6935
40.600,88.5724
40.610,79.0566
40.620,85.9439
40.630,77.3597
40.640,78.5704
40.650,80.8134
40.660,83.8169
40.670,76.5736
40.680,86.5175
40.690,86.2247
40.700,89.1303
40.710,83.2879
40.720,84.7347
40.730,82.3482
40.740,87.9889
40.750,86.5423
40.760,84.9585
40.770,85.2775
40.780,86.8803
40.790,83.4535
40.800,87.1088
40.810,82.0150
40.820,73.0973
40.830,83.7935
40.840,75.5877
40.850,78.0530
40.860,80.2255
40.870,77.9259
40.880,74.0995
40.890,79.2863
40.900,79.7028
40.910,74.7975
40.920,81.8349
40.930,78.1352
40.940,79.2603
40.950,84.2619
40.960,72.4381
40.970,81.9801
40.980,82.0707
40.990,80.7739
41.000,73.3999
41.010,74.8945
41.020,80.7929
41.030,78.3409
41.040,82.5689
41.050,83.0906
41.060,81.6045
41.070,74.7955
41.080,71.4960
41.090,74.8385
41.100,70.0267
41.110,79.1611
41.120,74.8035
41.130,71.5225
41.140,77.0956
41.150,81.9585
41.160,82.0679
41.170,81.6153
41.180,70.9279
41.190,76.5210
41.200,83.4263
41.210,78.7982
41.220,73.1502
41.230,78.2190
41.240,73.9860
41.250,75.1348
41.260,76.4044
41.270,78.4805
41.280,78.8115
41.290,78.3177
41.300,72.2269
41.310,81.6329
41.320,85.9548
41.330,79.5364
41.340,74.4266
41.350,80.8102
41.360,78.5785
41.370,74.3571
41.380,74.8481
41.390,87.8467
41.400,78.9287
41.410,86.3023
41.420,79.9964
41.430,82.4651
41.440,76.6074
41.450,88.2430
41.460,83.6653
41.470,88.2339
41.480,87.7449
41.490,81.2324
41.500,84.2736
41.510,79.9992
41.520,90.5899
41.530,90.8630
41.540,87.1141
41.550,87.6340
41.560,89.8810
41.570,86.3498
41.580,88.9413
41.590,92.4421
41.600,81.2424
41.610,84.0306
41.620,83.0645
41.630,90.4995
41.640,89.9591
41.650,87.5694
41.660,94.4389
41.670,80.8826
41.680,81.7750
41.690,82.7664
41.700,83.6347
41.710,92.9362
41.720,85.4627
41.730,93.5309
41.740,90.3867
41.750,91.0793
41.760,92.6729
41.770,92.3921
41.780,83.9909
41.790,87.9640
41.800,88.8739
41.810,92.2773
41.820,89.8971
41.830,91.7280
41.840,94.5208
41.850,82.6326
41.860,94.5049
41.870,92.6963
41.880,94.5477
41.890,83.2022
41.900,81.1122
41.910,83.0702
41.920,85.1830
41.930,82.0413
41.940,88.7346
41.950,88.4519
41.960,85.3620
41.970,91.7105
41.980,80.3810
41.990,81.4677
42.000,92.2922
42.010,81.5127
42.020,82.0979
42.030,83.5329
42.040,88.1806
42.050,88.9978
42.060,86.9015
42.070,80.9755
42.080,85.3155
42.090,87.5997
42.100,79.2382
42.110,88.7546
42.120,83.5367
42.130,77.9293
42.140,83.4912
42.150,87.4687
42.160,80.5810
42.170,82.9087
42.180,87.2807
42.190,86.7506
42.200,85.9587
42.210,83.8987
42.220,78.9043
42.230,79.4751
42.240,83.6822
42.250,80.9841
42.260,75.9199
42.270,83.8148
42.280,75.0128
42.290,76.2165
42.300,74.2576
42.310,83.5253
42.320,73.9736
42.330,73.4859
42.340,80.9735
42.350,81.8833
42.360,74.2808
42.370,75.1223
42.380,71.9763
42.390,81.4590
42.400,80.8166
42.410,71.4675
42.420,72.3022
42.430,71.5255
42.440,73.7150
42.450,71.0133
42.460,69.9436
42.470,81.6104
42.480,80.7940
42.490,81.9990
42.500,80.9299
42.510,70.7589
42.520,80.6187
42.530,80.1968
42.540,75.9179
42.550,77.1397
42.560,80.0374
42.570,77.2597
42.580,78.2341
42.590,76.3047
42.600,83.3259
42.610,74.0080
42.620,74.0630
42.630,82.0927
42.640,80.1161
42.650,78.6236
42.660,85.1771
42.670,78.7201
42.680,81.5169
42.690,74.6968
42.700,75.2250
42.710,85.7437
42.720,78.2658
42.730,76.1337
42.740,84.5880
42.750,74.2388
42.760,82.9498
42.770,80.1061
42.780,74.8251
42.790,78.2124
42.800,75.9602
42.810,77.7868
42.820,77.3651
42.830,81.9197
42.840,89.3290
42.850,84.0345
42.860,84.8153
42.870,83.4262
42.880,82.3619
42.890,81.5969
42.900,87.2622
42.910,77.5370
42.920,88.6385
42.930,87.1830
42.940,89.3923
42.950,89.5151
42.960,81.2714
42.970,88.9227
42.980,84.7790
42.990,81.7308
43.000,80.1087
43.010,89.3647
43.020,90.1774
43.030,81.9653
43.040,93.1464
43.050,84.5150
43.060,80.2547
43.070,85.4337
43.080,89.1582
43.090,83.3522
43.100,82.6545
43.110,88.7857
43.120,89.2329
43.130,91.4377
43.140,87.6754
43.150,87.7868
43.160,82.2250
43.170,83.4759
43.180,92.9049
43.190,91.9088
43.200,88.2666
43.210,92.3493
43.220,90.7732
43.230,84.6711
43.240,86.5509
43.250,94.8166
43.260,87.6636
43.270,87.6268
43.280,88.0923
43.290,87.0296
43.300,86.2153
43.310,91.1806
43.320,86.0805
43.330,87.2372
43.340,87.3574
43.350,94.5536
43.360,84.8334
43.370,91.2064
43.380,92.9036
43.390,88.1664
43.400,87.9130
43.410,82.0502
43.420,82.0210
43.430,86.5812
43.440,80.5683
43.450,89.6423
43.460,87.9220
43.470,87.9410
43.480,89.6309
43.490,86.2413
43.500,88.8279
43.510,90.6527
43.520,90.1661
43.530,89.2489
43.540,84.8646
43.550,81.7702
43.560,83.2463
43.570,81.6298
43.580,86.0149
43.590,87.5630
43.600,82.0607
43.610,79.4865
43.620,80.3147
43.630,79.5109
43.640,80.2891
43.650,77.8463
43.660,74.5536
43.670,74.7416
43.680,79.8493
43.690,86.6624
43.700,82.5532
43.710,74.9994
43.720,79.5163
43.730,80.8006
43.740,74.1655
43.750,85.6281
43.760,73.0729
43.770,85.4449
43.780,73.6988
43.790,75.8024
43.800,76.6308
43.810,82.3182
43.820,77.5705
43.830,77.0446
43.840,72.0017
43.850,77.8466
43.860,83.3529
43.870,81.9749
43.880,79.4078
43.890,79.9406
43.900,76.1865
43.910,76.1894
43.920,70.9487
43.930,73.0754
43.940,77.8959
43.950,77.6767
43.960,81.9948
43.970,75.3832
43.980,70.4771
43.990,73.9166
44.000,82.6551
44.010,77.3500
44.020,78.0848
44.030,84.6426
44.040,78.6323
44.050,84.7242
44.060,78.9416
44.070,75.9681
44.080,73.3293
44.090,81.3253
44.100,75.1566
44.110,75.3608
44.120,74.9471
44.130,74.6315
44.140,76.2523
44.150,81.9524
44.160,74.5481
44.170,78.4451
44.180,80.6268
44.190,82.9249
44.200,84.3287
44.210,85.7544
44.220,76.0412
44.230,88.7783
44.240,76.5317
44.250,75.6677
44.260,87.9020
44.270,83.3230
44.280,86.7151
44.290,88.7871
44.300,80.1359
44.310,89.5776
44.320,83.5864
44.330,81.8343
44.340,85.5301
44.350,87.7701
44.360,84.3647
44.370,86.0330
44.380,83.3624
44.390,85.4035
44.400,85.4935
44.410,85.6523
44.420,86.0189
44.430,88.6743
44.440,92.4100
44.450,80.2051
44.460,90.6549
44.470,84.7093
44.480,94.2464
44.490,87.1558
44.500,88.2926
44.510,82.6817
44.520,90.8091
44.530,91.3289
44.540,83.6984
44.550,85.4051
44.560,93.9249
44.570,82.2275
44.580,86.2309
44.590,90.7225
44.600,92.6239
44.610,82.8386
44.620,86.5464
44.630,94.0992
44.640,85.6430
44.650,94.7360
44.660,92.0655
44.670,85.5869
44.680,82.0397
44.690,81.8557
44.700,81.7527
44.710,91.0993
44.720,84.8836
44.730,82.7005
44.740,91.9384
44.750,94.5180
44.760,88.7187
44.770,91.3224
44.780,88.2608
44.790,84.8506
44.800,82.7479
44.810,87.6182
44.820,91.8132
44.830,92.4165
44.840,91.4405
44.850,86.7757
44.860,88.8062
44.870,80.8887
44.880,79.6530
44.890,92.5175
44.900,88.7892
44.910,79.9822
44.920,82.5595
44.930,90.2070
44.940,79.6344
44.950,84.4965
44.960,86.7243
44.970,80.3091
44.980,83.0253
44.990,80.9559
45.000,81.6305
45.010,79.0148
45.020,89.9738
45.030,81.8982
45.040,86.4354
45.050,95.1183
45.060,93.3130
45.070,89.0409
45.080,99.9433
45.090,96.3570
45.100,98.3123
45.110,99.2846
45.120,93.2240
45.130,99.8322
45.140,99.0989
45.150,104.8570
45.160,100.4110
45.170,99.0776
45.180,102.4250
45.190,111.2938
45.200,107.1833
45.210,110.4459
45.220,114.4658
45.230,114.8240
45.240,114.3795
45.250,107.5264
45.260,115.8633
45.270,123.5452
45.280,114.3158
45.290,122.6662
45.300,120.7318
45.310,119.3961
45.320,126.9534
45.330,125.6253
45.340,131.7524
45.350,133.5302
45.360,131.1724
45.370,125.9678
45.380,129.1262
45.390,137.0824
45.400,128.7812
45.410,139.0624
45.420,131.4893
45.430,134.1651
45.440,142.0753
45.450,140.8281
45.460,143.2918
45.470,142.4857
45.480,144.2624
45.490,139.1503
45.500,139.1879
45.510,145.6747
45.520,147.8384
45.530,145.2060
45.540,146.9593
45.550,158.0229
45.560,156.0843
45.570,158.4689
45.580,159.0694
45.590,161.1522
45.600,156.3762
45.610,160.3939
45.620,162.1948
45.630,164.9122
45.640,156.5541
45.650,166.4026
45.660,169.4608
45.670,174.2221
45.680,170.6362
45.690,163.2144
45.700,164.5942
45.710,175.9285
45.720,174.0538
45.730,174.3678
45.740,174.5420
45.750,175.6489
45.760,183.1810
45.770,175.9441
45.780,187.1642
45.790,181.1453
45.800,190.0919
45.810,189.1047
45.820,192.4982
45.830,194.5336
45.840,190.1423
45.850,183.6434
45.860,191.8553
45.870,190.9963
45.880,197.7123
45.890,195.0758
45.900,203.2858
45.910,200.1105
45.920,192.4718
45.930,194.7676
45.940,207.0873
45.950,209.2421
45.960,200.1767
45.970,199.1986
45.980,202.2799
45.990,202.1509
46.000,208.0086
46.010,209.8710
46.020,204.9703
46.030,211.5563
46.040,207.3487
46.050,213.1303
46.060,202.7158
46.070,213.3210
46.080,202.2121
46.090,208.1562
46.100,208.7292
46.110,211.6787
46.120,214.5293
46.130,215.5691
46.140,207.4057
46.150,206.1917
46.160,202.9354
46.170,213.1532
46.180,210.4485
46.190,206.1244
46.200,206.7274
46.210,202.1329
46.220,206.7998
46.230,212.1931
46.240,212.1304
46.250,205.0450
46.260,205.3927
46.270,211.4890
46.280,211.4464
46.290,211.9335
46.300,207.5405
46.310,207.4073
46.320,202.3215
46.330,205.5086
46.340,216.1862
46.350,204.1431
46.360,206.4490
46.370,212.0336
46.380,203.7561
46.390,215.1971
46.400,208.5926
46.410,209.3021
46.420,206.8593
46.430,212.6986
46.440,214.0995
46.450,212.1744
46.460,209.5215
46.470,216.1507
46.480,216.2642
46.490,209.4658
46.500,207.3089
46.510,208.3171
46.520,204.7077
46.530,214.8769
46.540,213.6030
46.550,210.3597
46.560,205.1781
46.570,204.7743
46.580,208.9898
46.590,213.2569
46.600,215.3789
46.610,215.3441
46.620,203.5217
46.630,206.6497
46.640,210.9447
46.650,215.8511
46.660,211.8626
46.670,210.0591
46.680,206.5853
46.690,204.4459
46.700,215.0376
46.710,209.1924
46.720,202.5218
46.730,202.5263
46.740,204.5621
46.750,207.0987
46.760,206.4292
46.770,203.7799
46.780,214.3975
46.790,209.1648
46.800,204.7911
46.810,202.5420
46.820,215.9749
46.830,210.2779
46.840,212.8121
46.850,203.6774
46.860,216.3738
46.870,203.0457
46.880,214.6825
46.890,213.1739
46.900,203.4828
46.910,210.8953
46.920,210.5482
46.930,205.9475
46.940,202.5520
46.950,203.1145
46.960,209.0240
46.970,205.4756
46.980,202.9773
46.990,216.4725
47.000,82.1767
47.010,76.8100
47.020,78.9565
47.030,87.7101
47.040,86.0649
47.050,81.3925
47.060,84.1029
47.070,76.1716
47.080,80.4692
47.090,82.9791
47.100,86.9761
47.110,81.1768
47.120,89.8458
47.130,78.0071
47.140,84.0699
47.150,83.9419
47.160,80.1923
47.170,81.2398
47.180,87.5237
47.190,81.3438
47.200,83.9148
47.210,83.6583
47.220,89.6418
47.230,85.2295
47.240,81.4498
47.250,82.1177
47.260,87.3828
47.270,81.6102
47.280,81.4729
47.290,89.9679
47.300,85.6977
47.310,84.4245
47.320,80.7873
47.330,89.7049
47.340,91.6392
47.350,90.2085
47.360,91.7104
47.370,85.0269
47.380,84.6054
47.390,85.7743
47.400,88.5200
47.410,82.2463
47.420,87.2658
47.430,86.9503
47.440,85.0985
47.450,90.9175
47.460,96.7017
47.470,90.5947
47.480,83.2032
47.490,91.6547
47.500,87.1003
47.510,94.8502
47.520,94.2827
47.530,85.6138
47.540,92.4687
47.550,89.4948
47.560,89.0200
47.570,83.6915
47.580,91.7474
47.590,89.5930
47.600,91.0074
47.610,95.3374
47.620,82.8519
47.630,93.5372
47.640,88.5718
47.650,93.0376
47.660,94.4284
47.670,92.9722
47.680,91.7845
47.690,88.6815
47.700,91.2667
47.710,84.1521
47.720,92.5196
47.730,86.1171
47.740,86.6657
47.750,91.1653
47.760,89.0567
47.770,82.3134
47.780,87.9955
47.790,88.3605
47.800,79.3023
47.810,84.7694
47.820,82.6261
47.830,87.9116
47.840,77.3843
47.850,86.1425
47.860,77.9580
47.870,87.8082
47.880,89.5227
47.890,82.1416
47.900,80.7458
47.910,77.4935
47.920,83.1200
47.930,83.8341
47.940,75.6441
47.950,80.6174
47.960,77.3598
47.970,75.0520
47.980,75.8257
47.990,80.9308
48.000,86.0050
48.010,83.8902
48.020,73.2527
48.030,77.4667
48.040,76.3178
48.050,78.0391
48.060,72.9690
48.070,73.7620
48.080,78.6573
48.090,74.2381
48.100,76.2807
48.110,76.2541
48.120,82.3186
48.130,83.2839
48.140,77.1026
48.150,84.1275
48.160,79.8603
48.170,78.0785
48.180,85.1309
48.190,79.0953
48.200,80.3411
48.210,77.9765
48.220,73.4075
48.230,84.0986
48.240,83.4214
48.250,76.5606
48.260,74.4991
48.270,71.6044
48.280,78.8724
48.290,72.6504
48.300,73.7004
48.310,85.7743
48.320,74.9640
48.330,75.3390
48.340,74.8182
48.350,72.6390
48.360,73.1724
48.370,79.9030
48.380,82.8498
48.390,84.6049
48.400,75.0205
48.410,85.0769
48.420,87.4134
48.430,86.6248
48.440,85.7214
48.450,87.4124
48.460,86.5244
48.470,85.4854
48.480,87.4067
48.490,77.9224
48.500,86.1888
48.510,79.5395
48.520,85.2293
48.530,81.3648
48.540,87.2753
48.550,82.9645
48.560,87.1448
48.570,83.9217
48.580,87.0810
48.590,84.1289
48.600,82.8939
48.610,81.2177
48.620,86.0018
48.630,84.5850
48.640,89.2741
48.650,81.2247
48.660,81.5392
48.670,92.7593
48.680,85.1168
48.690,82.8605
48.700,88.7778
48.710,87.0437
48.720,83.1504
48.730,86.2961
48.740,88.3599
48.750,87.7123
48.760,90.1728
48.770,91.0618
48.780,91.5579
48.790,81.8072
48.800,94.9901
48.810,88.3894
48.820,87.3629
48.830,96.3958
48.840,93.2399
48.850,83.8330
48.860,86.3410
48.870,88.0054
48.880,84.3962
48.890,84.3773
48.900,86.3237
48.910,87.1383
48.920,93.1131
48.930,85.0823
48.940,97.1748
48.950,88.5515
48.960,92.8936
48.970,86.9451
48.980,88.0569
48.990,90.5366
49.000,87.1637
49.010,95.8536
49.020,88.6504
49.030,91.1473
49.040,90.7037
49.050,94.6720
49.060,90.6094
49.070,94.4579
49.080,90.0475
49.090,81.8184
49.100,94.5213
49.110,86.2516
49.120,85.6210
49.130,82.3020
49.140,83.6161
49.150,88.1328
49.160,89.1254
49.170,90.3632
49.180,85.4646
49.190,86.9868
49.200,83.2405
49.210,85.5316
49.220,85.3709
49.230,84.0155
49.240,84.5681
49.250,80.9068
49.260,87.2089
49.270,81.7603
49.280,85.0148
49.290,83.6579
49.300,83.4993
49.310,84.5049
49.320,83.0483
49.330,85.5263
49.340,87.8846
49.350,79.4546
49.360,84.9205
49.370,83.2323
49.380,81.8814
49.390,88.7862
49.400,78.4182
49.410,84.0398
49.420,75.4923
49.430,81.3423
49.440,80.8711
49.450,79.2860
49.460,87.4072
49.470,86.1105
49.480,80.8285
49.490,86.9349
49.500,82.9515
49.510,85.0191
49.520,85.5888
49.530,81.6597
49.540,83.5370
49.550,80.0547
49.560,74.5291
49.570,81.5212
49.580,76.4763
49.590,77.4907
49.600,84.4108
49.610,77.9236
49.620,71.6422
49.630,73.3031
49.640,73.0421
49.650,80.4858
49.660,84.7776
49.670,81.4025
49.680,74.6114
49.690,81.0772
49.700,83.6939
49.710,80.2772
49.720,73.5938
49.730,72.5018
49.740,86.0454
49.750,72.3733
49.760,78.6385
49.770,81.6938
49.780,76.5419
49.790,76.7486
49.800,81.4185
49.810,84.8622
49.820,86.3733
49.830,79.2954
49.840,84.0925
49.850,83.5742
49.860,87.4844
49.870,76.1779
49.880,77.7320
49.890,81.3397
49.900,84.5983
49.910,76.2107
49.920,86.4113
49.930,89.5525
49.940,78.6486
49.950,81.3805
49.960,90.3216
49.970,87.0633
49.980,85.7047
49.990,89.1847
50.000,81.5026
50.010,89.4094
50.020,77.9053
50.030,88.7782
50.040,86.7656
50.050,92.7723
50.060,82.4355
50.070,89.6305
50.080,86.8038
50.090,88.4881
50.100,83.2265
50.110,82.9045
50.120,82.7592
50.130,93.6501
50.140,82.8597
50.150,87.5613
50.160,94.4972
50.170,95.4424
50.180,84.1705
50.190,89.0749
50.200,93.0938
50.210,82.7268
50.220,95.8840
50.230,95.0945
50.240,96.7639
50.250,95.5147
50.260,95.9976
50.270,87.2039
50.280,91.5989
50.290,87.1885
50.300,95.9265
50.310,87.2717
50.320,94.1403
50.330,89.8751
50.340,86.8748
50.350,83.3350
50.360,83.5353
50.370,86.3153
50.380,94.4797
50.390,91.9898
50.400,97.4639
50.410,83.7755
50.420,85.9448
50.430,92.5839
50.440,85.6832
50.450,87.6925
50.460,92.5496
50.470,93.3935
50.480,84.7642
50.490,96.2868
50.500,91.9927
50.510,84.8327
50.520,89.6434
50.530,93.1714
50.540,82.2469
50.550,89.7765
50.560,88.6572
50.570,94.0673
50.580,85.3171
50.590,93.5268
50.600,90.1380
50.610,89.7212
50.620,82.5739
50.630,91.5814
50.640,93.0188
50.650,81.1724
50.660,92.2577
50.670,79.0070
50.680,84.2533
50.690,82.7751
50.700,88.6029
50.710,83.9070
50.720,88.1004
50.730,89.4810
50.740,86.2368
50.750,82.8779
50.760,85.0501
50.770,85.8002
50.780,86.5602
50.790,76.6745
50.800,89.6862
50.810,83.7111
50.820,85.6184
50.830,87.2026
50.840,85.6687
50.850,77.2408
50.860,79.0557
50.870,80.4901
50.880,76.3724
50.890,85.7687
50.900,77.4650
50.910,85.3178
50.920,83.3758
50.930,73.5900
50.940,82.5688
50.950,77.5776
50.960,84.9599
50.970,79.4227
50.980,80.8655
50.990,72.3544
51.000,77.9695
51.010,79.6420
51.020,83.9115
51.030,77.6334
51.040,81.1400
51.050,73.2454
51.060,83.9858
51.070,72.5439
51.080,74.2722
51.090,82.2737
51.100,79.4018
51.110,85.5390
51.120,82.9434
51.130,83.1833
51.140,78.7009
51.150,84.6242
51.160,79.3151
51.170,76.7168
51.180,84.5678
51.190,77.2221
51.200,73.0092
51.210,79.7372
51.220,76.8865
51.230,78.9959
51.240,83.5504
51.250,75.0175
51.260,85.6610
51.270,83.3661
51.280,80.7482
51.290,79.4073
51.300,77.9159
51.310,76.4566
51.320,87.6434
51.330,77.9808
51.340,83.3255
51.350,83.1526
51.360,88.5457
51.370,76.6804
51.380,88.5784
51.390,81.1559
51.400,78.3221
51.410,85.8363
51.420,83.7786
51.430,90.3535
51.440,84.4047
51.450,85.4921
51.460,87.8344
51.470,83.7246
51.480,93.0233
51.490,79.8158
51.500,79.5686
51.510,90.0776
51.520,88.2971
51.530,83.4212
51.540,94.7982
51.550,91.1116
51.560,92.8804
51.570,86.4953
51.580,89.6874
51.590,92.4830
51.600,90.0902
51.610,86.0212
51.620,82.3309
51.630,87.0046
51.640,82.5622
51.650,95.1328
51.660,90.0092
51.670,92.2459
51.680,93.8395
51.690,94.5212
51.700,96.9208
51.710,96.6587
51.720,89.0126
51.730,93.5281
51.740,96.2171
51.750,92.6343
51.760,85.8588
51.770,91.6001
51.780,91.1454
51.790,87.9421
51.800,88.4082
51.810,85.3016
51.820,97.8709
51.830,84.6460
51.840,97.7299
51.850,85.4255
51.860,93.3818
51.870,96.9647
51.880,95.7188
51.890,93.9351
51.900,93.2693
51.910,91.2795
51.920,91.6499
51.930,92.2089
51.940,95.3814
51.950,92.7014
51.960,82.2981
51.970,90.1776
51.980,94.0612
51.990,93.9636
52.000,84.1970
52.010,83.5653
52.020,92.5329
52.030,82.4693
52.040,80.7190
52.050,82.1594
52.060,87.8593
52.070,87.1646
52.080,81.7869
52.090,92.4795
52.100,85.9238
52.110,78.9436
52.120,89.8763
52.130,80.1220
52.140,87.6201
52.150,80.2198
52.160,79.8774
52.170,84.9950
52.180,83.8310
52.190,87.4807
52.200,82.4523
52.210,85.2657
52.220,84.0670
52.230,76.5466
52.240,80.6443
52.250,83.4962
52.260,89.0625
52.270,86.9071
52.280,87.3046
52.290,81.9574
52.300,77.3707
52.310,83.9329
52.320,75.7991
52.330,82.5499
52.340,86.1651
52.350,73.4854
52.360,74.1097
52.370,77.6224
52.380,74.2889
52.390,83.9609
52.400,82.7003
52.410,84.8455
52.420,81.8924
52.430,84.3789
52.440,79.1244
52.450,79.0942
52.460,73.4492
52.470,80.5585
52.480,75.7776
52.490,76.6689
52.500,85.2886
52.510,80.8705
52.520,81.7409
52.530,79.2538
52.540,82.3557
52.550,84.0109
52.560,84.6830
52.570,84.3969
52.580,77.1062
52.590,77.6265
52.600,80.1875
52.610,79.3476
52.620,79.5725
52.630,82.5150
52.640,85.4148
52.650,82.5355
52.660,76.3242
52.670,75.2308
52.680,82.1173
52.690,86.9591
52.700,86.9622
52.710,75.0975
52.720,82.0227
52.730,82.0798
52.740,87.7900
52.750,77.1914
52.760,76.8780
52.770,84.6076
52.780,87.6438
52.790,77.0308
52.800,79.9185
52.810,76.9314
52.820,78.8043
52.830,88.0497
52.840,90.9840
52.850,88.6311
52.860,85.8991
52.870,89.7489
52.880,79.2412
52.890,86.0651
52.900,84.1847
52.910,91.9147
52.920,90.3203
52.930,82.1009
52.940,85.6368
52.950,94.7591
52.960,83.0068
52.970,93.1031
52.980,84.1077
52.990,93.7149
53.000,83.9481
53.010,89.0230
53.020,93.3274
53.030,92.2557
53.040,95.7388
53.050,89.7423
53.060,86.5015
53.070,96.3082
53.080,95.3793
53.090,90.0361
53.100,93.2039
53.110,85.4877
53.120,95.3995
53.130,94.3727
53.140,85.1170
53.150,87.7023
53.160,91.2994
53.170,94.6272
53.180,86.5136
53.190,86.8879
53.200,95.0644
53.210,85.8938
53.220,89.7170
53.230,93.9663
53.240,97.3720
53.250,91.2545
53.260,87.5483
53.270,94.9875
53.280,90.2275
53.290,94.2431
53.300,92.8193
53.310,84.0478
53.320,91.5784
53.330,97.3822
53.340,95.0868
53.350,83.9274
53.360,84.2178
53.370,96.8654
53.380,93.0397
53.390,85.8324
53.400,92.3255
53.410,93.6126
53.420,86.0221
53.430,94.9999
53.440,81.5116
53.450,81.6227
53.460,94.8024
53.470,87.1079
53.480,90.7663
53.490,94.1396
53.500,83.2645
53.510,80.9858
53.520,88.4807
53.530,86.0451
53.540,86.4845
53.550,84.8017
53.560,80.6737
53.570,84.2737
53.580,87.9973
53.590,90.7567
53.600,85.3239
53.610,79.2201
53.620,77.8103
53.630,87.2143
53.640,87.6817
53.650,88.6354
53.660,76.3899
53.670,81.7797
53.680,86.7892
53.690,78.9401
53.700,83.0077
53.710,76.2485
53.720,76.4321
53.730,83.6385
53.740,83.5308
53.750,86.6570
53.760,80.7350
53.770,80.4252
53.780,75.1619
53.790,81.3126
53.800,74.7774
53.810,79.1206
53.820,78.3431
53.830,87.1906
53.840,76.1556
53.850,83.6451
53.860,82.1003
53.870,86.6805
53.880,84.1029
53.890,76.6371
53.900,79.6791
53.910,80.8618
53.920,79.3512
53.930,86.6207
53.940,76.3689
53.950,77.0375
53.960,81.4653
53.970,76.6974
53.980,75.1013
53.990,75.9733
54.000,84.8108
54.010,86.1575
54.020,83.9104
54.030,73.3920
54.040,73.5056
54.050,79.8314
54.060,77.5341
54.070,76.6530
54.080,86.3585
54.090,77.9503
54.100,81.0211
54.110,75.2328
54.120,79.4817
54.130,75.0424
54.140,85.8765
54.150,76.6048
54.160,83.0001
54.170,85.9038
54.180,80.1593
54.190,80.4260
54.200,89.2118
54.210,85.8921
54.220,82.6462
54.230,81.8253
54.240,89.0974
54.250,84.1608
54.260,89.4498
54.270,86.4483
54.280,87.1450
54.290,84.4885
54.300,89.7578
54.310,85.8186
54.320,90.9914
54.330,86.3045
54.340,89.7253
54.350,92.9263
54.360,94.1311
54.370,87.2166
54.380,80.9011
54.390,89.4824
54.400,94.1180
54.410,89.5798
54.420,86.5832
54.430,93.9689
54.440,91.4817
54.450,96.2219
54.460,89.9525
54.470,90.8042
54.480,87.3866
54.490,88.9075
54.500,86.6994
54.510,96.7059
54.520,92.8327
54.530,93.6846
54.540,96.0248
54.550,87.2583
54.560,87.2890
54.570,90.3838
54.580,89.1507
54.590,95.9152
54.600,85.8465
54.610,93.6111
54.620,93.9539
54.630,91.8465
54.640,95.9561
54.650,85.4992
54.660,91.7842
54.670,98.1726
54.680,87.8788
54.690,95.5201
54.700,94.9467
54.710,93.3869
54.720,84.1965
54.730,89.3875
54.740,91.4825
54.750,87.7814
54.760,85.7846
54.770,84.1526
54.780,88.6517
54.790,87.2916
54.800,83.8055
54.810,90.7300
54.820,92.4026
54.830,83.7695
54.840,93.9091
54.850,92.7302
54.860,92.6768
54.870,86.3462
54.880,87.4430
54.890,93.1255
54.900,88.1880
54.910,92.5256
54.920,84.0456
54.930,80.9330
54.940,91.2982
54.950,82.4138
54.960,93.3284
54.970,90.5469
54.980,79.8562
54.990,83.6886
55.000,80.4123
55.010,86.9121
55.020,92.2245
55.030,89.1978
55.040,91.2589
55.050,83.7100
55.060,80.1514
55.070,84.3744
55.080,87.1592
55.090,90.0050
55.100,76.4406
55.110,89.9824
55.120,87.1039
55.130,88.7381
55.140,83.7328
55.150,87.1576
55.160,76.5741
55.170,87.4899
55.180,77.1034
55.190,88.3762
55.200,85.9143
55.210,88.0810
55.220,75.0709
55.230,83.0904
55.240,81.7088
55.250,81.9450
55.260,76.9808
55.270,77.6204
55.280,73.3935
55.290,84.5848
55.300,86.2999
55.310,78.5538
55.320,82.8030
55.330,79.1526
55.340,80.9517
55.350,77.6314
55.360,75.0854
55.370,76.7099
55.380,86.3536
55.390,81.4277
55.400,79.1463
55.410,74.4014
55.420,76.6741
55.430,79.4473
55.440,77.6027
55.450,86.8046
55.460,78.7812
55.470,77.4997
55.480,87.4150
55.490,75.5015
55.500,86.7871
55.510,82.3096
55.520,88.6416
55.530,79.4029
55.540,84.6971
55.550,84.6601
55.560,81.0940
55.570,78.1392
55.580,88.2397
55.590,85.7784
55.600,82.0817
55.610,83.2448
55.620,84.4067
55.630,89.4871
55.640,79.9334
55.650,84.8199
55.660,78.1527
55.670,82.9697
55.680,82.9900
55.690,91.0268
55.700,79.5884
55.710,83.7305
55.720,81.2024
55.730,83.4540
55.740,80.1200
55.750,84.2442
55.760,86.2475
55.770,93.9906
55.780,94.7625
55.790,85.4130
55.800,92.8325
55.810,92.3488
55.820,89.8613
55.830,93.7826
55.840,92.9206
55.850,90.1539
55.860,92.0400
55.870,83.2156
55.880,93.6234
55.890,83.6501
55.900,88.5334
55.910,89.5530
55.920,84.6886
55.930,97.2039
55.940,89.8585
55.950,95.2891
55.960,90.6774
55.970,88.9077
55.980,97.6656
55.990,93.2591
56.000,95.3649
56.010,90.2330
56.020,90.5778
56.030,92.6259
56.040,91.5029
56.050,84.6817
56.060,85.1144
56.070,85.9503
56.080,90.3184
56.090,92.0607
56.100,88.3293
56.110,94.8226
56.120,95.2058
56.130,98.7970
56.140,94.0309
56.150,93.0045
56.160,97.2023
56.170,86.6335
56.180,88.7710
56.190,88.9118
56.200,96.7776
56.210,84.8029
56.220,94.0703
56.230,85.4647
56.240,87.0165
56.250,88.6996
56.260,94.8001
56.270,86.9088
56.280,86.1449
56.290,85.4643
56.300,94.3041
56.310,82.4818
56.320,91.6201
56.330,85.9314
56.340,88.8426
56.350,88.0950
56.360,86.2178
56.370,86.4376
56.380,85.4818
56.390,81.6329
56.400,89.5508
56.410,81.0416
56.420,79.6563
56.430,92.5589
56.440,86.2408
56.450,89.2054
56.460,81.6219
56.470,84.3814
56.480,85.4677
56.490,84.1359
56.500,90.4208
56.510,83.1494
56.520,78.4928
56.530,79.5450
56.540,80.8732
56.550,86.6181
56.560,88.4174
56.570,80.8579
56.580,87.8342
56.590,85.7229
56.600,77.4269
56.610,79.2618
56.620,82.0486
56.630,77.0442
56.640,84.7422
56.650,83.7843
56.660,78.1962
56.670,83.7387
56.680,86.1513
56.690,80.9947
56.700,76.7685
56.710,81.6288
56.720,75.9381
56.730,85.5936
56.740,78.9502
56.750,84.4092
56.760,82.3818
56.770,85.4288
56.780,81.9920
56.790,84.8739
56.800,73.4642
56.810,80.4411
56.820,73.6281
56.830,78.4676
56.840,80.0514
56.850,74.2208
56.860,74.4911
56.870,76.1458
56.880,77.7020
56.890,75.9597
56.900,87.2927
56.910,76.1114
56.920,85.0746
56.930,88.7626
56.940,77.8727
56.950,87.7185
56.960,89.2691
56.970,86.1135
56.980,82.0444
56.990,87.6869
57.000,79.7022
57.010,80.2019
57.020,87.0752
57.030,82.0434
57.040,85.3838
57.050,90.4935
57.060,82.4897
57.070,78.5461
57.080,91.0527
57.090,79.9768
57.100,85.2992
57.110,78.4213
57.120,79.9597
57.130,84.9246
57.140,88.5266
57.150,90.8445
57.160,87.5777
57.170,80.8516
57.180,88.0072
57.190,86.2322
57.200,85.0499
57.210,83.6273
57.220,82.1435
57.230,88.1119
57.240,90.0044
57.250,86.0481
57.260,85.3448
57.270,87.8480
57.280,85.3070
57.290,96.9606
57.300,90.5941
57.310,93.6930
57.320,91.2650
57.330,91.0779
57.340,94.0362
57.350,92.9036
57.360,92.7258
57.370,96.5476
57.380,96.2108
57.390,85.4297
57.400,87.1906
57.410,92.5414
57.420,92.8179
57.430,90.0603
57.440,91.9098
57.450,95.9199
57.460,92.7094
57.470,93.8014
57.480,90.4723
57.490,94.4811
57.500,87.3916
57.510,89.8572
57.520,94.5578
57.530,94.6456
57.540,99.0043
57.550,88.8105
57.560,95.6004
57.570,88.6652
57.580,97.5917
57.590,98.1096
57.600,93.3717
57.610,90.7001
57.620,96.9350
57.630,94.4694
57.640,87.1252
57.650,86.8545
57.660,84.6508
57.670,88.8016
57.680,96.5957
57.690,84.1041
57.700,87.8260
57.710,94.1795
57.720,83.6944
57.730,91.0206
57.740,82.6693
57.750,93.0170
57.760,91.8955
57.770,94.0918
57.780,89.9953
57.790,89.6122
57.800,86.7065
57.810,90.4487
57.820,80.8077
57.830,83.7665
57.840,82.8582
57.850,92.0410
57.860,90.0135
57.870,90.6675
57.880,93.1551
57.890,90.0128
57.900,89.5145
57.910,87.4035
57.920,80.2718
57.930,80.3376
57.940,77.4935
57.950,90.0969
57.960,78.2727
57.970,83.1113
57.980,79.7109
57.990,79.9131
58.000,87.8494
58.010,80.8819
58.020,80.1283
58.030,81.6424
58.040,83.5636
58.050,76.1495
58.060,76.6008
58.070,78.8362
58.080,76.6535
58.090,82.2794
58.100,87.0282
58.110,87.3868
58.120,79.6759
58.130,83.3431
58.140,84.3186
58.150,78.1238
58.160,75.9566
58.170,75.5327
58.180,75.7067
58.190,77.1967
58.200,80.7615
58.210,84.3184
58.220,86.4632
58.230,86.7971
58.240,77.1867
58.250,83.4602
58.260,81.0258
58.270,83.4735
58.280,83.5105
58.290,77.2643
58.300,79.8713
58.310,86.1911
58.320,88.0984
58.330,80.7693
58.340,80.4117
58.350,85.4870
58.360,85.8437
58.370,86.9020
58.380,75.7522
58.390,76.5226
58.400,76.9905
58.410,88.4663
58.420,89.6264
58.430,78.9699
58.440,85.5195
58.450,79.9381
58.460,86.2867
58.470,77.7974
58.480,90.5159
58.490,79.2898
58.500,86.5197
58.510,78.0603
58.520,92.5700
58.530,90.2591
58.540,80.4266
58.550,87.8047
58.560,80.5985
58.570,93.3111
58.580,85.3776
58.590,91.2361
58.600,91.9751
58.610,88.4140
58.620,87.4161
58.630,89.1660
58.640,95.0709
58.650,84.9798
58.660,95.2286
58.670,83.6361
58.680,87.4183
58.690,94.2791
58.700,93.8465
58.710,94.8890
58.720,87.4805
58.730,85.5708
58.740,83.9783
58.750,96.5058
58.760,95.1595
58.770,97.3595
58.780,96.9309
58.790,89.9740
58.800,92.2293
58.810,86.2500
58.820,90.3858
58.830,91.1004
58.840,94.0722
58.850,97.0265
58.860,93.7778
58.870,99.1857
58.880,99.1185
58.890,90.9264
58.900,92.5721
58.910,98.8069
58.920,94.7362
58.930,97.8399
58.940,97.6273
58.950,89.7520
58.960,90.1871
58.970,99.2625
58.980,96.3918
58.990,90.4941
59.000,93.6055
59.010,92.2753
59.020,91.6873
59.030,95.0898
59.040,86.6260
59.050,98.7998
59.060,96.0456
59.070,91.0885
59.080,91.8612
59.090,96.4716
59.100,91.3195
59.110,91.9470
59.120,88.2621
59.130,91.9859
59.140,91.7632
59.150,93.0332
59.160,92.1794
59.170,89.1156
59.180,86.0144
59.190,93.9941
59.200,86.4424
59.210,84.8227
59.220,84.3470
59.230,83.6304
59.240,90.7832
59.250,87.9524
59.260,87.1219
59.270,84.4391
59.280,94.2520
59.290,84.7105
59.300,87.1909
59.310,86.9386
59.320,92.3400
59.330,92.1131
59.340,88.7343
59.350,85.1008
59.360,92.0366
59.370,87.4280
59.380,80.5704
59.390,80.1380
59.400,83.8717
59.410,77.9364
59.420,90.0466
59.430,78.4708
59.440,80.7182
59.450,76.4040
59.460,85.8718
59.470,85.9597
59.480,78.7866
59.490,83.9957
59.500,77.1101
59.510,75.3779
59.520,82.4386
59.530,88.4507
59.540,87.2580
59.550,88.7393
59.560,81.6661
59.570,78.0022
59.580,83.8981
59.590,85.6528
59.600,78.4392
59.610,88.1960
59.620,81.6290
59.630,76.0284
59.640,83.0609
59.650,88.3673
59.660,75.6147
59.670,79.0536
59.680,87.7737
59.690,79.4687
59.700,86.6515
59.710,79.3762
59.720,77.9033
59.730,87.1902
59.740,78.9839
59.750,81.6211
59.760,86.1034
59.770,82.2681
59.780,86.0849
59.790,80.0385
59.800,84.5135
59.810,87.2732
59.820,82.0888
59.830,76.1156
59.840,78.0507
59.850,81.2711
59.860,84.3369
59.870,85.1904
59.880,80.3946
59.890,84.6846
59.900,82.2170
59.910,90.4511
59.920,90.5832
59.930,83.8041
59.940,79.7809
59.950,92.3170
59.960,92.6761
59.970,81.5498
59.980,93.4359
59.990,80.9479
