t_s,envelope_uV
0.000,62.5118
0.010,60.8312
0.020,67.0415
0.030,62.7532
0.040,65.6920
0.050,65.3502
0.060,66.7892
0.070,63.2928
0.080,63.3195
0.090,62.7438
0.100,69.6310
0.110,64.2052
0.120,70.1321
0.130,59.6050
0.140,71.8329
0.150,64.4121
0.160,69.5981
0.170,65.3599
0.180,64.9431
0.190,68.4694
0.200,62.2788
0.210,69.1894
0.220,69.2414
0.230,64.8995
0.240,68.7432
0.250,67.8450
0.260,65.6896
0.270,68.6336
0.280,62.1221
0.290,64.8723
0.300,63.0674
0.310,62.7468
0.320,67.2917
0.330,65.7278
0.340,67.3613
0.350,70.8655
0.360,68.5248
0.370,67.0566
0.380,72.4576
0.390,70.6622
0.400,68.3379
0.410,72.0476
0.420,61.9432
0.430,72.3650
0.440,68.7207
0.450,62.2333
0.460,69.4661
0.470,61.3280
0.480,71.5972
0.490,68.6605
0.500,68.9800
0.510,61.2364
0.520,61.0260
0.530,63.8293
0.540,64.5963
0.550,69.9100
0.560,62.6887
0.570,64.1344
0.580,67.8623
0.590,68.0373
0.600,68.8970
0.610,66.6528
0.620,61.2857
0.630,64.6385
0.640,65.6409
0.650,65.4778
0.660,66.3223
0.670,67.8284
0.680,58.9538
0.690,60.9788
0.700,67.3635
0.710,66.7666
0.720,58.6005
0.730,61.5440
0.740,56.9104
0.750,62.2438
0.760,61.3600
0.770,62.1911
0.780,60.4699
0.790,65.2700
0.800,65.4746
0.810,57.9655
0.820,67.0070
0.830,59.4656
0.840,54.5019
0.850,56.7562
0.860,61.0239
0.870,60.0558
0.880,61.3062
0.890,57.7074
0.900,54.5747
0.910,62.9894
0.920,60.2894
0.930,54.5306
0.940,53.6859
0.950,53.7208
0.960,52.9935
0.970,52.8684
0.980,59.9934
0.990,54.9461
1.000,56.9023
1.010,64.1590
1.020,60.7183
1.030,59.1424
1.040,61.4021
1.050,62.0355
1.060,60.2196
1.070,55.9692
1.080,56.1460
1.090,62.0039
1.100,64.4755
1.110,52.1904
1.120,60.0877
1.130,53.3551
1.140,63.5190
1.150,62.0645
1.160,53.3938
1.170,53.4673
1.180,64.2556
1.190,54.7023
1.200,55.4636
1.210,63.3132
1.220,53.6721
1.230,60.8867
1.240,56.9136
1.250,55.7723
1.260,58.5480
1.270,57.7112
1.280,55.6311
1.290,60.7458
1.300,64.6510
1.310,61.2292
1.320,56.6714
1.330,60.9831
1.340,63.2169
1.350,60.5915
1.360,56.2506
1.370,57.6554
1.380,67.1213
1.390,57.9152
1.400,59.2714
1.410,56.8380
1.420,59.8859
1.430,58.4348
1.440,63.7076
1.450,68.8104
1.460,69.4022
1.470,58.7814
1.480,61.8792
1.490,69.6589
1.500,59.4979
1.510,61.1780
1.520,64.9484
1.530,67.0716
1.540,59.6928
1.550,70.3807
1.560,60.2079
1.570,67.2379
1.580,66.2051
1.590,72.1876
1.600,62.2744
1.610,61.2048
1.620,69.4483
1.630,65.3618
1.640,69.3392
1.650,62.9228
1.660,64.6001
1.670,62.4571
1.680,71.7600
1.690,69.9653
1.700,65.6501
1.710,62.6498
1.720,65.8987
1.730,64.1741
1.740,66.1019
1.750,70.9461
1.760,63.1687
1.770,71.1304
1.780,64.8656
1.790,71.6141
1.800,72.4347
1.810,74.4724
1.820,63.3647
1.830,71.8922
1.840,73.1061
1.850,73.8040
1.860,73.1484
1.870,65.5538
1.880,70.8491
1.890,67.8807
1.900,66.4712
1.910,64.4933
1.920,68.1779
1.930,67.2272
1.940,62.8620
1.950,66.6258
1.960,70.4525
1.970,62.5578
1.980,72.7374
1.990,63.3471
2.000,66.7508
2.010,61.7435
2.020,67.7752
2.030,64.4688
2.040,60.0563
2.050,69.2322
2.060,68.8697
2.070,71.0204
2.080,66.9468
2.090,59.0470
2.100,63.7315
2.110,62.9347
2.120,61.1478
2.130,69.9767
2.140,63.5903
2.150,57.9529
2.160,62.4763
2.170,63.7704
2.180,61.1313
2.190,56.6797
2.200,62.1557
2.210,56.5433
2.220,59.8296
2.230,62.3156
2.240,56.4514
2.250,61.8003
2.260,60.3447
2.270,64.0705
2.280,57.2221
2.290,55.2676
2.300,63.3811
2.310,58.9005
2.320,61.3385
2.330,53.8613
2.340,61.9111
2.350,64.2085
2.360,58.7619
2.370,65.1960
2.380,62.5312
2.390,60.8284
2.400,59.8466
2.410,61.5217
2.420,58.7636
2.430,63.9343
2.440,59.5130
2.450,54.7090
2.460,59.6933
2.470,59.8572
2.480,62.3529
2.490,61.7419
2.500,56.6867
2.510,63.9491
2.520,54.5970
2.530,63.1095
2.540,64.2773
2.550,55.3017
2.560,53.5278
2.570,64.5593
2.580,55.4461
2.590,59.6125
2.600,57.0069
2.610,63.1670
2.620,58.5666
2.630,59.2857
2.640,59.1410
2.650,60.5655
2.660,63.7140
2.670,65.5234
2.680,61.6652
2.690,61.3785
2.700,61.3652
2.710,60.4458
2.720,66.3504
2.730,55.6207
2.740,66.2228
2.750,66.2820
2.760,61.2009
2.770,62.3565
2.780,59.6409
2.790,65.8507
2.800,60.8839
2.810,65.8391
2.820,66.3679
2.830,59.9379
2.840,64.1174
2.850,63.3887
2.860,64.9543
2.870,70.1653
2.880,67.4266
2.890,62.7063
2.900,70.9050
2.910,68.9787
2.920,63.8692
2.930,64.3516
2.940,67.7473
2.950,61.3147
2.960,68.0551
2.970,67.0275
2.980,60.9857
2.990,62.7337
3.000,72.8398
3.010,67.3138
3.020,73.2064
3.030,62.5473
3.040,62.9776
3.050,69.6062
3.060,64.2085
3.070,61.8514
3.080,61.7089
3.090,68.8435
3.100,64.8337
3.110,73.8280
3.120,65.8819
3.130,73.1726
3.140,64.2420
3.150,73.0429
3.160,67.3431
3.170,65.3971
3.180,66.6481
3.190,62.7799
3.200,63.7421
3.210,64.9080
3.220,68.4137
3.230,71.7360
3.240,64.1563
3.250,63.8515
3.260,65.2109
3.270,72.2290
3.280,69.5947
3.290,71.8257
3.300,65.1061
3.310,74.3379
3.320,71.0577
3.330,66.8955
3.340,62.3147
3.350,66.4805
3.360,65.5391
3.370,66.4431
3.380,73.8355
3.390,67.6238
3.400,71.7389
3.410,62.6738
3.420,69.6690
3.430,68.6174
3.440,71.6034
3.450,65.1924
3.460,61.3219
3.470,61.0310
3.480,67.3762
3.490,70.1241
3.500,60.4639
3.510,68.4789
3.520,62.8318
3.530,61.2782
3.540,70.4110
3.550,65.1361
3.560,67.5528
3.570,58.2056
3.580,57.7903
3.590,61.1670
3.600,58.4668
3.610,68.2220
3.620,57.5308
3.630,60.7991
3.640,68.3871
3.650,64.6718
3.660,68.2058
3.670,56.8510
3.680,64.7089
3.690,56.2711
3.700,66.6390
3.710,58.4647
3.720,55.9720
3.730,63.5291
3.740,58.0024
3.750,56.9528
3.760,57.9259
3.770,60.1716
3.780,62.2183
3.790,63.1658
3.800,56.4783
3.810,58.7906
3.820,59.2670
3.830,64.9344
3.840,62.4057
3.850,64.0739
3.860,59.3079
3.870,61.7384
3.880,64.6118
3.890,64.1100
3.900,55.2116
3.910,61.2921
3.920,58.7778
3.930,54.6311
3.940,55.2477
3.950,56.9383
3.960,56.7464
3.970,65.0032
3.980,56.6816
3.990,61.1192
4.000,65.1567
4.010,57.5427
4.020,62.4328
4.030,61.8167
4.040,60.5664
4.050,63.4902
4.060,60.6111
4.070,61.7513
4.080,64.8766
4.090,57.8020
4.100,58.0960
4.110,65.7706
4.120,58.4528
4.130,64.3297
4.140,61.8532
4.150,61.6261
4.160,55.7609
4.170,58.4949
4.180,63.7985
4.190,62.6186
4.200,61.1342
4.210,59.8082
4.220,59.3882
4.230,59.8258
4.240,67.8256
4.250,59.0030
4.260,69.0072
4.270,60.1317
4.280,63.5681
4.290,68.5244
4.300,69.7211
4.310,68.0925
4.320,61.6337
4.330,62.6793
4.340,66.6722
4.350,68.2393
4.360,63.2434
4.370,67.1202
4.380,59.8174
4.390,65.7428
4.400,63.6428
4.410,70.1111
4.420,63.6800
4.430,62.1674
4.440,60.9909
4.450,68.4806
4.460,70.0665
4.470,70.8002
4.480,67.2561
4.490,62.0820
4.500,71.9449
4.510,73.4808
4.520,69.1296
4.530,64.4569
4.540,69.3015
4.550,66.6588
4.560,69.4975
4.570,68.7549
4.580,65.8089
4.590,72.6033
4.600,66.7511
4.610,67.2498
4.620,73.6955
4.630,73.1992
4.640,65.4629
4.650,68.1473
4.660,70.2171
4.670,68.3514
4.680,63.3789
4.690,70.3098
4.700,73.5070
4.710,73.2281
4.720,71.5189
4.730,72.3566
4.740,70.5483
4.750,70.0917
4.760,71.6305
4.770,72.8095
4.780,67.1696
4.790,65.3961
4.800,62.3663
4.810,62.7464
4.820,66.0115
4.830,69.1728
4.840,73.4613
4.850,61.7128
4.860,63.8550
4.870,70.9301
4.880,60.9604
4.890,71.1776
4.900,64.8109
4.910,64.8769
4.920,64.1939
4.930,62.8102
4.940,64.0107
4.950,63.7892
4.960,63.8195
4.970,66.6461
4.980,68.6307
4.990,65.7593
5.000,61.5570
5.010,67.8261
5.020,61.2052
5.030,67.4012
5.040,58.7245
5.050,58.9379
5.060,60.1970
5.070,66.6985
5.080,66.8576
5.090,57.7210
5.100,60.7012
5.110,58.6363
5.120,63.0380
5.130,67.0793
5.140,57.6739
5.150,58.0363
5.160,55.9411
5.170,66.6665
5.180,58.8832
5.190,62.1880
5.200,63.3526
5.210,65.8489
5.220,54.3716
5.230,60.0551
5.240,65.5049
5.250,64.2179
5.260,60.5580
5.270,61.3598
5.280,59.9244
5.290,55.2154
5.300,65.4444
5.310,60.4590
5.320,63.8376
5.330,55.7013
5.340,62.9622
5.350,61.8056
5.360,64.9182
5.370,60.7500
5.380,60.9431
5.390,62.8975
5.400,59.2145
5.410,58.0451
5.420,62.6052
5.430,65.8309
5.440,61.6416
5.450,59.8691
5.460,65.1161
5.470,58.4343
5.480,54.9394
5.490,65.6338
5.500,56.1935
5.510,56.5783
5.520,57.2736
5.530,58.6581
5.540,59.0131
5.550,59.4523
5.560,61.2218
5.570,61.0614
5.580,55.8371
5.590,61.5895
5.600,60.1711
5.610,66.3854
5.620,57.7273
5.630,59.1010
5.640,58.8013
5.650,58.8499
5.660,68.1799
5.670,63.0020
5.680,57.7080
5.690,66.0641
5.700,65.6829
5.710,66.9039
5.720,59.9365
5.730,63.9388
5.740,60.6332
5.750,67.7698
5.760,60.7945
5.770,61.8722
5.780,69.4199
5.790,67.6986
5.800,67.3845
5.810,63.9861
5.820,69.1885
5.830,62.2917
5.840,70.2646
5.850,65.6464
5.860,72.8177
5.870,71.9295
5.880,73.0290
5.890,71.4707
5.900,68.3861
5.910,74.1872
5.920,69.7587
5.930,68.1915
5.940,69.3341
5.950,68.9409
5.960,72.6187
5.970,65.1236
5.980,66.4733
5.990,65.0458
6.000,69.9545
6.010,64.0978
6.020,70.4273
6.030,71.6943
6.040,63.4224
6.050,73.0334
6.060,72.1682
6.070,71.8552
6.080,74.0630
6.090,67.7672
6.100,71.3401
6.110,66.5215
6.120,71.5773
6.130,75.3688
6.140,69.7316
6.150,72.3253
6.160,64.9108
6.170,66.3109
6.180,65.7427
6.190,65.7414
6.200,63.7037
6.210,63.9575
6.220,64.3022
6.230,66.8960
6.240,67.1008
6.250,69.9515
6.260,66.4108
6.270,62.7074
6.280,73.3899
6.290,70.9875
6.300,70.2193
6.310,73.2809
6.320,72.2963
6.330,63.2679
6.340,65.9086
6.350,66.1376
6.360,70.1154
6.370,68.0770
6.380,69.5222
6.390,67.6358
6.400,65.7260
6.410,64.4407
6.420,61.7135
6.430,66.4866
6.440,68.5524
6.450,65.1518
6.460,68.5594
6.470,58.2983
6.480,67.9614
6.490,65.5127
6.500,63.3585
6.510,68.7774
6.520,58.7054
6.530,65.6388
6.540,63.3919
6.550,67.1043
6.560,67.0752
6.570,59.5608
6.580,61.1107
6.590,60.8961
6.600,55.7502
6.610,58.7290
6.620,61.1161
6.630,57.1579
6.640,62.3396
6.650,62.8402
6.660,60.6460
6.670,61.0786
6.680,56.0329
6.690,58.5545
6.700,65.5972
6.710,63.6434
6.720,57.6092
6.730,57.3346
6.740,63.4307
6.750,62.2539
6.760,65.7817
6.770,53.6574
6.780,55.8745
6.790,64.2639
6.800,62.1437
6.810,56.0468
6.820,62.1741
6.830,63.4196
6.840,57.5528
6.850,56.2798
6.860,57.1800
6.870,57.8126
6.880,55.1424
6.890,62.1273
6.900,59.0299
6.910,57.2609
6.920,65.3829
6.930,61.8406
6.940,61.9988
6.950,56.6831
6.960,63.4974
6.970,65.5223
6.980,55.2509
6.990,66.3921
7.000,58.1936
7.010,65.5752
7.020,66.0507
7.030,57.7694
7.040,64.2397
7.050,68.2234
7.060,62.3879
7.070,62.7125
7.080,59.5522
7.090,57.7183
7.100,57.7575
7.110,58.7883
7.120,66.3261
7.130,60.9676
7.140,64.9710
7.150,65.6940
7.160,70.5375
7.170,62.0454
7.180,61.9962
7.190,63.3441
7.200,70.7616
7.210,63.3052
7.220,65.7128
7.230,63.7236
7.240,68.2678
7.250,65.6824
7.260,65.9062
7.270,67.7090
7.280,69.2627
7.290,62.4064
7.300,64.1023
7.310,72.6461
7.320,64.2756
7.330,73.0942
7.340,64.9946
7.350,70.9604
7.360,63.4858
7.370,64.3341
7.380,64.2678
7.390,64.7179
7.400,72.2133
7.410,75.1698
7.420,72.4951
7.430,71.8834
7.440,67.5062
7.450,66.7680
7.460,73.8451
7.470,65.8171
7.480,68.1937
7.490,70.5235
7.500,71.8538
7.510,75.0978
7.520,64.1378
7.530,73.3125
7.540,66.0893
7.550,65.4807
7.560,64.2078
7.570,72.3518
7.580,75.4166
7.590,67.6095
7.600,69.5985
7.610,75.3305
7.620,72.1886
7.630,63.2184
7.640,73.6764
7.650,73.1773
7.660,72.0905
7.670,67.5959
7.680,74.6254
7.690,67.9843
7.700,68.1015
7.710,69.7174
7.720,71.9921
7.730,69.2469
7.740,61.0451
7.750,71.4186
7.760,69.2256
7.770,70.3792
7.780,62.3046
7.790,70.8416
7.800,62.6876
7.810,65.6092
7.820,71.0464
7.830,71.0758
7.840,64.7418
7.850,68.1290
7.860,67.3029
7.870,61.2329
7.880,59.8261
7.890,61.4443
7.900,66.2827
7.910,61.3191
7.920,61.3347
7.930,64.1913
7.940,60.0364
7.950,59.9945
7.960,68.7270
7.970,64.5164
7.980,61.9398
7.990,64.5681
8.000,67.6682
8.010,64.3416
8.020,57.4591
8.030,61.8958
8.040,62.7323
8.050,64.3642
8.060,55.9678
8.070,65.7921
8.080,54.6724
8.090,65.0164
8.100,56.6792
8.110,65.0315
8.120,58.3213
8.130,57.1915
8.140,64.8999
8.150,64.0592
8.160,54.6429
8.170,58.4629
8.180,54.1679
8.190,63.2325
8.200,54.8878
8.210,56.0603
8.220,60.8518
8.230,57.3829
8.240,56.0710
8.250,62.6458
8.260,65.6168
8.270,61.4363
8.280,61.5268
8.290,57.4491
8.300,54.7887
8.310,60.3233
8.320,62.6543
8.330,62.9016
8.340,56.7322
8.350,65.2664
8.360,59.9908
8.370,66.5346
8.380,61.0450
8.390,63.6048
8.400,65.1625
8.410,59.8018
8.420,56.4826
8.430,58.1710
8.440,62.3663
8.450,57.4368
8.460,60.5570
8.470,57.0154
8.480,60.5516
8.490,59.9105
8.500,58.2239
8.510,58.8325
8.520,68.6526
8.530,62.2730
8.540,65.1683
8.550,62.7069
8.560,62.0508
8.570,59.0798
8.580,68.7189
8.590,67.7866
8.600,70.4090
8.610,66.5324
8.620,65.3606
8.630,72.3057
8.640,65.4788
8.650,70.3101
8.660,67.7211
8.670,63.6758
8.680,70.6355
8.690,70.9756
8.700,62.5378
8.710,68.0157
8.720,67.7473
8.730,74.1649
8.740,73.2935
8.750,65.3691
8.760,74.8217
8.770,71.2935
8.780,68.6747
8.790,65.2130
8.800,72.6607
8.810,67.0695
8.820,67.0169
8.830,68.2173
8.840,68.7446
8.850,74.5791
8.860,75.3430
8.870,64.2325
8.880,68.3554
8.890,69.4061
8.900,71.4875
8.910,73.6956
8.920,75.1889
8.930,70.0076
8.940,75.7159
8.950,69.8468
8.960,72.8026
8.970,65.9643
8.980,69.3715
8.990,67.6072
9.000,72.8999
9.010,71.0788
9.020,72.0548
9.030,64.4250
9.040,73.7161
9.050,71.5113
9.060,68.1539
9.070,73.0839
9.080,74.3386
9.090,68.4416
9.100,64.7006
9.110,66.4436
9.120,73.9604
9.130,68.8832
9.140,73.8847
9.150,72.7160
9.160,67.5578
9.170,63.2567
9.180,72.7890
9.190,61.6218
9.200,64.3786
9.210,68.3563
9.220,71.3338
9.230,64.6904
9.240,64.7688
9.250,71.3017
9.260,62.7596
9.270,68.4177
9.280,67.8709
9.290,60.3408
9.300,59.2467
9.310,60.3454
9.320,64.1551
9.330,61.8793
9.340,60.5549
9.350,63.2142
9.360,66.8067
9.370,63.8325
9.380,67.9869
9.390,66.2662
9.400,60.8752
9.410,58.3070
9.420,59.2847
9.430,56.8707
9.440,67.0587
9.450,61.3588
9.460,66.5385
9.470,62.3516
9.480,59.3657
9.490,59.0477
9.500,61.4547
9.510,59.6497
9.520,55.4012
9.530,60.2555
9.540,64.9881
9.550,54.6762
9.560,55.5358
9.570,57.0236
9.580,64.6064
9.590,59.5275
9.600,61.2912
9.610,56.8154
9.620,58.0142
9.630,66.0670
9.640,59.1752
9.650,62.2773
9.660,65.9996
9.670,59.7138
9.680,55.9086
9.690,60.1722
9.700,61.4877
9.710,63.3626
9.720,62.8718
9.730,62.0627
9.740,57.0254
9.750,54.7644
9.760,65.8648
9.770,57.6129
9.780,64.5328
9.790,63.4000
9.800,62.7500
9.810,60.6252
9.820,61.3409
9.830,63.7334
9.840,56.2498
9.850,59.1691
9.860,58.5090
9.870,65.2114
9.880,60.0209
9.890,66.5185
9.900,67.0848
9.910,57.6722
9.920,65.8257
9.930,62.8078
9.940,61.0827
9.950,60.8037
9.960,66.9627
9.970,64.0260
9.980,60.9640
9.990,67.1742
10.000,65.3698
10.010,66.7529
10.020,69.2247
10.030,69.7980
10.040,60.8845
10.050,62.3514
10.060,71.7411
10.070,72.7290
10.080,72.0893
10.090,61.4340
10.100,63.1536
10.110,64.9007
10.120,63.9125
10.130,65.0659
10.140,63.4855
10.150,72.0625
10.160,72.5787
10.170,65.9324
10.180,72.9229
10.190,75.3101
10.200,66.6562
10.210,64.9759
10.220,73.1783
10.230,68.7935
10.240,66.5397
10.250,65.2267
10.260,70.3285
10.270,66.2606
10.280,75.0893
10.290,68.8862
10.300,71.4477
10.310,72.5076
10.320,74.4919
10.330,66.2070
10.340,71.7467
10.350,66.1403
10.360,71.6016
10.370,72.1279
10.380,68.1727
10.390,74.5402
10.400,71.4289
10.410,64.0989
10.420,73.2688
10.430,76.5669
10.440,70.9990
10.450,72.4372
10.460,69.4644
10.470,74.1056
10.480,65.0528
10.490,73.3150
10.500,73.7540
10.510,68.2538
10.520,65.0000
10.530,72.0225
10.540,67.4019
10.550,73.4240
10.560,67.7177
10.570,72.1018
10.580,62.9199
10.590,67.3795
10.600,66.4679
10.610,67.4695
10.620,62.1941
10.630,61.4891
10.640,67.8639
10.650,62.9704
10.660,70.2682
10.670,67.4827
10.680,69.3836
10.690,63.3797
10.700,66.4801
10.710,71.7462
10.720,68.8771
10.730,66.8059
10.740,64.4762
10.750,63.7063
10.760,68.1715
10.770,70.5450
10.780,60.4201
10.790,58.4579
10.800,68.8362
10.810,67.0605
10.820,59.8711
10.830,68.4906
10.840,61.5454
10.850,59.9455
10.860,64.7879
10.870,57.9698
10.880,59.5380
10.890,56.4058
10.900,64.9926
10.910,57.8117
10.920,63.8214
10.930,62.0376
10.940,57.4049
10.950,65.7724
10.960,57.0590
10.970,64.3763
10.980,66.2952
10.990,55.4620
11.000,54.7202
11.010,60.3026
11.020,63.5785
11.030,62.2548
11.040,56.3214
11.050,60.7243
11.060,63.8589
11.070,58.5680
11.080,55.0025
11.090,63.6017
11.100,65.8654
11.110,56.3381
11.120,60.0263
11.130,54.5862
11.140,64.1502
11.150,62.4782
11.160,61.3362
11.170,62.7110
11.180,56.2730
11.190,64.0842
11.200,56.6531
11.210,56.8655
11.220,57.1205
11.230,56.7249
11.240,65.5584
11.250,56.0038
11.260,56.7859
11.270,65.1455
11.280,60.8058
11.290,58.5855
11.300,66.9483
11.310,63.0714
11.320,63.6921
11.330,67.1239
11.340,67.5122
11.350,62.7218
11.360,62.0055
11.370,64.4602
11.380,62.9691
11.390,64.8903
11.400,61.9418
11.410,65.5713
11.420,68.5885
11.430,61.5756
11.440,70.7838
11.450,71.7171
11.460,68.5611
11.470,69.0297
11.480,62.6095
11.490,69.5275
11.500,68.2434
11.510,68.0746
11.520,66.8482
11.530,64.8784
11.540,67.1055
11.550,62.5673
11.560,64.9141
11.570,66.3200
11.580,68.9782
11.590,62.7993
11.600,63.5546
11.610,70.2614
11.620,67.9752
11.630,74.6799
11.640,66.7479
11.650,68.1809
11.660,66.3116
11.670,73.3309
11.680,72.2193
11.690,64.7976
11.700,65.2062
11.710,72.6581
11.720,67.5237
11.730,73.1349
11.740,75.9320
11.750,73.4863
11.760,69.7326
11.770,66.0334
11.780,74.9549
11.790,74.5245
11.800,65.2101
11.810,66.3904
11.820,76.2691
11.830,65.2488
11.840,64.8538
11.850,70.2679
11.860,73.0061
11.870,65.4796
11.880,65.1596
11.890,68.8148
11.900,69.8050
11.910,75.7969
11.920,64.9974
11.930,75.4130
11.940,72.1805
11.950,69.3166
11.960,68.8653
11.970,67.4352
11.980,75.2749
11.990,74.0093
12.000,66.6189
12.010,65.6856
12.020,72.6000
12.030,67.3082
12.040,73.1653
12.050,74.0464
12.060,66.7051
12.070,62.0903
12.080,64.0327
12.090,72.0297
12.100,69.8470
12.110,65.5987
12.120,63.2342
12.130,61.1628
12.140,72.2275
12.150,64.0624
12.160,64.1807
12.170,69.5697
12.180,60.2899
12.190,62.7046
12.200,65.2531
12.210,67.1544
12.220,59.4318
12.230,63.1152
12.240,65.9078
12.250,66.4502
12.260,67.6932
12.270,65.4748
12.280,66.9035
12.290,59.5949
12.300,56.9094
12.310,62.8291
12.320,61.5272
12.330,62.5699
12.340,63.9698
12.350,59.5103
12.360,61.5891
12.370,58.1118
12.380,61.8427
12.390,62.1103
12.400,61.3463
12.410,60.2175
12.420,66.2198
12.430,58.0970
12.440,59.8522
12.450,66.5958
12.460,65.7890
12.470,56.5652
12.480,58.1089
12.490,55.5020
12.500,57.6189
12.510,60.5069
12.520,56.0552
12.530,56.7998
12.540,67.0440
12.550,65.9411
12.560,56.5746
12.570,62.8396
12.580,59.5116
12.590,63.8313
12.600,56.6642
12.610,61.5642
12.620,62.0190
12.630,55.9792
12.640,60.3215
12.650,58.9419
12.660,56.9714
12.670,57.7850
12.680,63.8734
12.690,64.1023
12.700,67.0865
12.710,62.2148
12.720,59.9372
12.730,69.4850
12.740,59.2690
12.750,59.7335
12.760,63.4478
12.770,60.5802
12.780,62.0182
12.790,68.6426
12.800,59.7207
12.810,60.6688
12.820,60.1187
12.830,66.2913
12.840,62.0999
12.850,61.1816
12.860,64.5942
12.870,67.0072
12.880,68.2709
12.890,69.0375
12.900,71.0456
12.910,70.6870
12.920,66.8146
12.930,63.6020
12.940,67.9130
12.950,70.6850
12.960,66.3336
12.970,72.8316
12.980,69.3520
12.990,72.2998
13.000,67.6607
13.010,63.2923
13.020,74.8450
13.030,64.2380
13.040,70.8746
13.050,72.3045
13.060,65.0950
13.070,69.5423
13.080,64.2063
13.090,76.2186
13.100,72.4033
13.110,76.7668
13.120,69.7984
13.130,71.3201
13.140,73.1257
13.150,64.8106
13.160,67.8432
13.170,73.0188
13.180,74.3155
13.190,67.5881
13.200,71.9078
13.210,69.4483
13.220,75.2665
13.230,68.7240
13.240,69.6466
13.250,71.5509
13.260,66.8403
13.270,73.9626
13.280,69.8492
13.290,74.2028
13.300,65.0871
13.310,71.5476
13.320,76.8471
13.330,75.5985
13.340,64.2926
13.350,70.6700
13.360,64.4969
13.370,66.6158
13.380,66.0068
13.390,70.3754
13.400,64.8268
13.410,75.3819
13.420,63.7889
13.430,69.7298
13.440,67.6737
13.450,72.7954
13.460,67.8540
13.470,74.2259
13.480,63.1708
13.490,69.3703
13.500,66.0896
13.510,73.1604
13.520,61.1668
13.530,71.3840
13.540,66.1955
13.550,62.4149
13.560,72.3132
13.570,67.8435
13.580,64.3567
13.590,67.2429
13.600,60.8507
13.610,62.7390
13.620,62.2052
13.630,68.0603
13.640,60.2753
13.650,62.4879
13.660,59.0118
13.670,64.9489
13.680,64.8210
13.690,57.6590
13.700,68.2965
13.710,58.7802
13.720,68.4676
13.730,64.4159
13.740,67.4722
13.750,60.1700
13.760,56.7320
13.770,68.5685
13.780,56.4458
13.790,68.2681
13.800,65.1674
13.810,58.0030
13.820,61.8760
13.830,64.5164
13.840,63.9103
13.850,62.8437
13.860,57.6715
13.870,55.4041
13.880,55.8667
13.890,57.9561
13.900,57.4503
13.910,64.9770
13.920,61.5283
13.930,58.4423
13.940,65.2685
13.950,66.9027
13.960,57.0401
13.970,58.1807
13.980,58.0597
13.990,58.0155
14.000,60.9051
14.010,60.7938
14.020,58.9108
14.030,66.1633
14.040,57.8500
14.050,62.7496
14.060,64.5710
14.070,65.5832
14.080,62.4242
14.090,58.4730
14.100,67.3298
14.110,59.1678
14.120,64.9633
14.130,65.3126
14.140,65.0765
14.150,62.6406
14.160,58.7442
14.170,69.7048
14.180,60.0353
14.190,60.7795
14.200,62.3037
14.210,63.2943
14.220,64.3774
14.230,62.1925
14.240,70.6196
14.250,68.3445
14.260,71.9191
14.270,63.7228
14.280,70.8827
14.290,65.1554
14.300,68.8959
14.310,69.9360
14.320,62.1562
14.330,70.2144
14.340,64.6972
14.350,67.3691
14.360,64.2170
14.370,62.3994
14.380,74.1408
14.390,73.0929
14.400,74.8733
14.410,67.2166
14.420,67.3042
14.430,69.5072
14.440,68.3000
14.450,64.9069
14.460,75.1185
14.470,71.4136
14.480,65.8200
14.490,67.4096
14.500,69.8055
14.510,75.6738
14.520,76.1828
14.530,66.2804
14.540,76.9023
14.550,72.3582
14.560,73.0568
14.570,76.5107
14.580,68.6036
14.590,67.0559
14.600,69.8762
14.610,75.8547
14.620,70.4991
14.630,65.2515
14.640,71.2155
14.650,66.4726
14.660,73.6150
14.670,68.4827
14.680,65.7279
14.690,65.9380
14.700,76.1475
14.710,70.0394
14.720,67.4404
14.730,70.6596
14.740,66.1088
14.750,74.1508
14.760,67.5880
14.770,72.8250
14.780,64.6638
14.790,70.2615
14.800,74.3912
14.810,64.9157
14.820,70.2142
14.830,70.9333
14.840,75.1307
14.850,71.9406
14.860,64.4501
14.870,74.1940
14.880,68.2326
14.890,67.5439
14.900,70.6468
14.910,65.9108
14.920,65.2130
14.930,68.1170
14.940,62.3792
14.950,63.7807
14.960,66.4187
14.970,63.4433
14.980,64.5397
14.990,61.5030
15.000,70.7360
15.010,62.4836
15.020,65.0191
15.030,67.7271
15.040,76.1810
15.050,72.4766
15.060,69.7668
15.070,67.2593
15.080,80.3683
15.090,69.7423
15.100,75.0612
15.110,80.1950
15.120,76.1684
15.130,85.6797
15.140,80.6172
15.150,82.2250
15.160,83.5338
15.170,84.5017
15.180,88.7435
15.190,83.4300
15.200,81.3735
15.210,83.9717
15.220,92.8065
15.230,84.7527
15.240,90.9296
15.250,95.7820
15.260,94.2839
15.270,98.2006
15.280,93.0144
15.290,95.0619
15.300,94.3064
15.310,97.7826
15.320,94.4697
15.330,96.0229
15.340,99.1321
15.350,98.4903
15.360,104.0663
15.370,104.1530
15.380,99.2984
15.390,108.6738
15.400,111.7171
15.410,102.9939
15.420,107.0753
15.430,109.3877
15.440,111.2769
15.450,110.5129
15.460,107.0726
15.470,117.6945
15.480,111.7809
15.490,120.6011
15.500,114.0899
15.510,111.8237
15.520,121.6416
15.530,125.6931
15.540,115.6472
15.550,123.7974
15.560,119.6108
15.570,118.8518
15.580,122.4502
15.590,126.1890
15.600,126.1597
15.610,123.9049
15.620,122.8681
15.630,123.7062
15.640,130.5870
15.650,131.2332
15.660,134.5371
15.670,136.6238
15.680,132.6969
15.690,135.0314
15.700,133.8694
15.710,143.8669
15.720,132.7869
15.730,133.5918
15.740,140.8747
15.750,139.9957
15.760,142.4835
15.770,140.1355
15.780,149.3086
15.790,140.8515
15.800,147.9093
15.810,152.1715
15.820,151.2317
15.830,151.0131
15.840,148.1215
15.850,153.7348
15.860,155.4439
15.870,159.7878
15.880,160.7648
15.890,151.9539
15.900,162.1162
15.910,160.5777
15.920,163.3318
15.930,156.3927
15.940,166.6513
15.950,157.2175
15.960,167.4808
15.970,167.8614
15.980,160.2119
15.990,171.0603
16.000,168.4051
16.010,171.3351
16.020,163.6542
16.030,173.0586
16.040,163.5483
16.050,166.4011
16.060,172.6208
16.070,164.8168
16.080,165.2790
16.090,162.2278
16.100,172.0064
16.110,172.4115
16.120,167.4599
16.130,169.5180
16.140,163.0251
16.150,164.7329
16.160,165.8058
16.170,166.6372
16.180,161.9276
16.190,171.3488
16.200,168.5301
16.210,171.0617
16.220,170.7228
16.230,170.6918
16.240,164.6035
16.250,168.7653
16.260,168.2201
16.270,166.0221
16.280,163.4289
16.290,162.2634
16.300,163.3691
16.310,169.7061
16.320,169.7303
16.330,167.3498
16.340,168.9828
16.350,161.3837
16.360,170.5585
16.370,162.2023
16.380,169.2318
16.390,167.5044
16.400,172.9466
16.410,166.2160
16.420,165.3245
16.430,162.2513
16.440,172.6485
16.450,169.6620
16.460,161.3499
16.470,169.1264
16.480,169.7015
16.490,171.6435
16.500,169.2877
16.510,165.2589
16.520,161.3559
16.530,161.4368
16.540,161.2215
16.550,161.5508
16.560,162.1419
16.570,166.8337
16.580,170.1033
16.590,170.3624
16.600,163.4250
16.610,167.1490
16.620,167.6457
16.630,165.5559
16.640,166.4884
16.650,162.2696
16.660,172.9118
16.670,166.3802
16.680,169.8574
16.690,166.0788
16.700,165.6569
16.710,163.0511
16.720,166.5538
16.730,170.0510
16.740,169.8404
16.750,170.9537
16.760,167.8109
16.770,170.2568
16.780,166.7320
16.790,165.8173
16.800,169.6828
16.810,165.7837
16.820,163.3377
16.830,170.3702
16.840,169.5315
16.850,166.2895
16.860,170.4195
16.870,173.4185
16.880,167.1540
16.890,164.0061
16.900,169.3356
16.910,169.3721
16.920,168.5841
16.930,171.1520
16.940,167.9148
16.950,162.0466
16.960,168.4660
16.970,170.6563
16.980,173.7751
16.990,172.9909
17.000,65.9295
17.010,62.2786
17.020,70.6692
17.030,65.8770
17.040,65.8228
17.050,66.2387
17.060,61.8420
17.070,64.4981
17.080,64.2246
17.090,63.1200
17.100,66.4113
17.110,67.3891
17.120,67.5598
17.130,63.5861
17.140,69.0939
17.150,66.5518
17.160,71.1911
17.170,72.5217
17.180,68.3637
17.190,69.1942
17.200,62.0339
17.210,68.2821
17.220,69.0525
17.230,67.3858
17.240,69.7019
17.250,70.1730
17.260,72.0003
17.270,68.3332
17.280,64.8944
17.290,70.6008
17.300,72.4863
17.310,71.4155
17.320,66.3211
17.330,66.7882
17.340,75.6898
17.350,73.6101
17.360,66.6566
17.370,71.8736
17.380,65.9910
17.390,70.5130
17.400,70.6317
17.410,73.3768
17.420,72.1396
17.430,72.7008
17.440,71.5046
17.450,78.0322
17.460,67.0818
17.470,70.2266
17.480,74.9193
17.490,74.3732
17.500,76.2363
17.510,73.4780
17.520,71.9612
17.530,70.0855
17.540,67.7743
17.550,76.8682
17.560,73.6222
17.570,70.8876
17.580,65.7645
17.590,72.8677
17.600,77.1995
17.610,69.4859
17.620,66.2597
17.630,77.4316
17.640,67.3711
17.650,66.8342
17.660,69.3817
17.670,70.5036
17.680,65.7855
17.690,71.1556
17.700,69.9611
17.710,70.8664
17.720,66.6379
17.730,67.3482
17.740,75.8204
17.750,74.7766
17.760,75.2387
17.770,72.3458
17.780,71.1795
17.790,65.4502
17.800,65.0073
17.810,66.1056
17.820,70.6285
17.830,69.3944
17.840,61.4471
17.850,67.9563
17.860,67.1385
17.870,69.6495
17.880,65.1088
17.890,63.3562
17.900,68.1103
17.910,70.5088
17.920,67.6326
17.930,71.7547
17.940,61.0405
17.950,60.5367
17.960,68.9412
17.970,64.3226
17.980,63.5012
17.990,64.8098
18.000,67.8724
18.010,68.3159
18.020,58.5449
18.030,68.7108
18.040,64.8552
18.050,67.0470
18.060,57.0490
18.070,66.0553
18.080,62.5551
18.090,69.2543
18.100,57.3524
18.110,67.3792
18.120,56.6684
18.130,61.4044
18.140,68.3143
18.150,61.3874
18.160,61.0063
18.170,56.4795
18.180,62.9880
18.190,59.7480
18.200,60.1074
18.210,65.4187
18.220,67.3475
18.230,68.0507
18.240,61.7016
18.250,64.2564
18.260,63.2103
18.270,63.7325
18.280,64.5962
18.290,64.6426
18.300,66.0511
18.310,61.4392
18.320,61.1230
18.330,69.0121
18.340,67.6519
18.350,60.3368
18.360,60.5141
18.370,60.4378
18.380,69.0298
18.390,63.3377
18.400,64.2181
18.410,66.7202
18.420,58.9666
18.430,58.1549
18.440,70.7434
18.450,59.7160
18.460,66.7657
18.470,70.0728
18.480,71.0442
18.490,67.3691
18.500,67.6757
18.510,59.8163
18.520,62.9771
18.530,68.2443
18.540,63.7913
18.550,61.5680
18.560,68.4379
18.570,71.3944
18.580,70.2972
18.590,63.8381
18.600,72.2158
18.610,72.4962
18.620,66.4248
18.630,72.8737
18.640,65.9696
18.650,72.4287
18.660,69.8724
18.670,73.4376
18.680,71.6634
18.690,68.8176
18.700,65.1842
18.710,76.2410
18.720,68.5976
18.730,74.3296
18.740,72.2550
18.750,66.8911
18.760,64.9243
18.770,74.2486
18.780,72.7611
18.790,75.3473
18.800,72.8985
18.810,68.8946
18.820,73.1548
18.830,77.3573
18.840,76.9138
18.850,67.3712
18.860,76.7857
18.870,70.3879
18.880,67.6533
18.890,72.3140
18.900,74.3256
18.910,73.9289
18.920,77.8743
18.930,68.4400
18.940,70.9056
18.950,74.5105
18.960,73.5243
18.970,75.2817
18.980,75.2642
18.990,75.2570
19.000,66.8268
19.010,77.1287
19.020,73.2411
19.030,72.5121
19.040,68.7566
19.050,72.3029
19.060,73.8582
19.070,75.6118
19.080,68.3181
19.090,70.9842
19.100,66.8945
19.110,67.7289
19.120,72.6114
19.130,69.5736
19.140,74.2694
19.150,72.5820
19.160,69.2067
19.170,75.2402
19.180,66.1239
19.190,73.4407
19.200,68.9272
19.210,69.2583
19.220,71.1555
19.230,73.8819
19.240,70.0723
19.250,62.9255
19.260,67.3273
19.270,74.0173
19.280,70.1381
19.290,73.7285
19.300,66.5451
19.310,61.7299
19.320,61.8580
19.330,67.8493
19.340,69.5672
19.350,67.2050
19.360,69.4208
19.370,70.4233
19.380,65.0915
19.390,59.2335
19.400,62.4972
19.410,62.4958
19.420,67.0657
19.430,70.8221
19.440,65.6395
19.450,63.7890
19.460,66.3587
19.470,66.4167
19.480,64.1685
19.490,65.9978
19.500,66.2053
19.510,61.3267
19.520,66.7178
19.530,67.3640
19.540,67.1606
19.550,65.2368
19.560,58.1543
19.570,64.5192
19.580,61.7204
19.590,63.2723
19.600,63.1804
19.610,58.8795
19.620,60.1640
19.630,65.9307
19.640,64.8668
19.650,62.4057
19.660,56.7992
19.670,57.8374
19.680,56.9409
19.690,57.6447
19.700,59.8342
19.710,64.5467
19.720,63.5530
19.730,60.4322
19.740,57.1406
19.750,59.0604
19.760,66.3175
19.770,66.0224
19.780,57.9053
19.790,57.4606
19.800,58.2818
19.810,64.4029
19.820,69.6912
19.830,63.4642
19.840,67.6213
19.850,61.6946
19.860,67.4449
19.870,67.0723
19.880,65.1588
19.890,59.1832
19.900,61.0122
19.910,72.0052
19.920,71.1996
19.930,62.2495
19.940,68.2041
19.950,69.3125
19.960,68.3577
19.970,67.7953
19.980,65.4713
19.990,70.9885
20.000,69.2541
20.010,61.6429
20.020,66.7524
20.030,74.4581
20.040,63.4607
20.050,64.6589
20.060,74.2592
20.070,75.3397
20.080,72.5462
20.090,63.6021
20.100,73.7557
20.110,73.7151
20.120,64.8204
20.130,71.3708
20.140,75.0652
20.150,69.0806
20.160,75.0075
20.170,71.4844
20.180,66.5541
20.190,69.8375
20.200,68.8878
20.210,77.1068
20.220,67.1243
20.230,75.1471
20.240,74.1360
20.250,74.9901
20.260,77.8243
20.270,69.4539
20.280,76.3645
20.290,69.1761
20.300,71.7700
20.310,69.4605
20.320,76.4894
20.330,72.5266
20.340,69.3898
20.350,69.1214
20.360,73.1058
20.370,72.9581
20.380,70.8122
20.390,72.9131
20.400,72.9376
20.410,69.4333
20.420,71.6765
20.430,69.7273
20.440,76.0239
20.450,66.6878
20.460,70.4177
20.470,72.8976
20.480,70.9101
20.490,77.4446
20.500,77.6352
20.510,69.0192
20.520,67.2614
20.530,67.7227
20.540,71.1854
20.550,72.2343
20.560,74.6179
20.570,65.5430
20.580,67.8763
20.590,65.8332
20.600,72.7434
20.610,74.7465
20.620,70.8827
20.630,75.4635
20.640,70.6233
20.650,66.3988
20.660,74.9486
20.670,72.3510
20.680,65.0617
20.690,64.2279
20.700,63.8601
20.710,73.8397
20.720,65.7590
20.730,61.4324
20.740,67.8146
20.750,68.2479
20.760,68.1698
20.770,66.6871
20.780,72.0094
20.790,65.4872
20.800,67.6280
20.810,68.7766
20.820,67.9092
20.830,65.2692
20.840,68.5355
20.850,61.4108
20.860,62.1998
20.870,69.8856
20.880,59.6878
20.890,69.0842
20.900,61.0543
20.910,67.7268
20.920,65.1909
20.930,66.1001
20.940,57.7963
20.950,58.4079
20.960,59.5993
20.970,61.6673
20.980,68.3853
20.990,68.0491
21.000,59.9739
21.010,64.8360
21.020,66.1815
21.030,66.4489
21.040,68.9919
21.050,57.6121
21.060,65.7385
21.070,62.0373
21.080,68.7124
21.090,67.1942
21.100,63.6734
21.110,62.2828
21.120,63.0454
21.130,57.9390
21.140,64.9728
21.150,62.7977
21.160,62.1682
21.170,65.1101
21.180,64.6733
21.190,59.6179
21.200,59.3185
21.210,59.9220
21.220,57.7185
21.230,69.5329
21.240,59.4041
21.250,63.5485
21.260,58.4869
21.270,59.9327
21.280,66.7258
21.290,61.7841
21.300,66.5104
21.310,64.9738
21.320,68.8203
21.330,61.4226
21.340,71.5732
21.350,66.8071
21.360,61.4241
21.370,64.9224
21.380,69.2797
21.390,73.2369
21.400,64.0926
21.410,72.4184
21.420,61.8336
21.430,62.2781
21.440,66.3491
21.450,62.8186
21.460,67.6002
21.470,70.0587
21.480,70.2426
21.490,69.8645
21.500,65.8182
21.510,67.6911
21.520,68.6270
21.530,67.0461
21.540,73.5096
21.550,73.5068
21.560,75.6072
21.570,76.7625
21.580,65.1063
21.590,77.6084
21.600,73.3101
21.610,72.7552
21.620,76.0165
21.630,73.9379
21.640,67.4816
21.650,68.9299
21.660,78.6591
21.670,70.1110
21.680,73.4545
21.690,76.1210
21.700,68.6260
21.710,71.7509
21.720,67.5844
21.730,74.1673
21.740,72.5691
21.750,78.0785
21.760,76.3044
21.770,67.9091
21.780,75.7824
21.790,75.3263
21.800,74.1587
21.810,74.1622
21.820,71.3252
21.830,79.2418
21.840,68.8820
21.850,75.9162
21.860,70.2743
21.870,72.8261
21.880,76.4034
21.890,69.2225
21.900,69.2890
21.910,69.9695
21.920,71.1975
21.930,71.1239
21.940,69.9615
21.950,71.3573
21.960,66.9636
21.970,67.4637
21.980,69.2540
21.990,74.7343
22.000,72.4367
22.010,64.9634
22.020,64.7037
22.030,69.9020
22.040,75.7324
22.050,67.5942
22.060,64.8218
22.070,63.6382
22.080,70.6529
22.090,66.2461
22.100,70.4509
22.110,74.1550
22.120,62.9135
22.130,65.5828
22.140,74.0628
22.150,73.5737
22.160,64.9457
22.170,61.7555
22.180,70.9987
22.190,66.4140
22.200,64.7777
22.210,64.8859
22.220,65.8893
22.230,69.4600
22.240,71.7837
22.250,70.0894
22.260,70.7029
22.270,67.4875
22.280,70.9007
22.290,69.8226
22.300,62.0139
22.310,64.5786
22.320,60.0560
22.330,64.2844
22.340,66.5051
22.350,57.9689
22.360,59.0126
22.370,59.0119
22.380,62.8479
22.390,64.2546
22.400,68.8180
22.410,65.3373
22.420,62.7809
22.430,63.1793
22.440,59.9776
22.450,59.1733
22.460,61.7848
22.470,57.2000
22.480,58.0919
22.490,66.3395
22.500,67.1842
22.510,64.5601
22.520,64.7258
22.530,63.8370
22.540,66.8300
22.550,68.1159
22.560,68.9812
22.570,68.2076
22.580,57.6017
22.590,68.7606
22.600,69.7932
22.610,68.3865
22.620,58.6980
22.630,60.7721
22.640,66.7421
22.650,66.9513
22.660,60.3879
22.670,69.2212
22.680,69.1184
22.690,66.4792
22.700,62.3912
22.710,71.3342
22.720,60.8921
22.730,70.3807
22.740,64.8659
22.750,61.5848
22.760,67.8990
22.770,70.5142
22.780,66.8366
22.790,61.3633
22.800,67.7979
22.810,67.1912
22.820,62.6076
22.830,67.7051
22.840,62.4331
22.850,69.8503
22.860,72.2432
22.870,64.5386
22.880,66.8117
22.890,73.0764
22.900,74.7788
22.910,69.6570
22.920,72.4872
22.930,67.5498
22.940,76.3790
22.950,76.0522
22.960,66.8654
22.970,75.4588
22.980,76.5166
22.990,68.7762
23.000,76.8587
23.010,75.5146
23.020,72.5096
23.030,66.4445
23.040,72.8340
23.050,69.6735
23.060,72.9287
23.070,67.2751
23.080,69.4296
23.090,71.5182
23.100,67.7952
23.110,68.8964
23.120,75.3442
23.130,67.3596
23.140,69.1971
23.150,75.4480
23.160,67.3977
23.170,74.5797
23.180,74.8583
23.190,78.5594
23.200,76.9506
23.210,67.7822
23.220,70.9577
23.230,70.7553
23.240,72.3323
23.250,71.9595
23.260,79.2154
23.270,78.5072
23.280,75.6313
23.290,69.1195
23.300,78.5087
23.310,77.3645
23.320,79.1712
23.330,74.5565
23.340,78.1904
23.350,67.1471
23.360,78.1827
23.370,76.1017
23.380,66.8270
23.390,68.8040
23.400,71.1339
23.410,71.8883
23.420,70.9973
23.430,74.2751
23.440,66.2433
23.450,67.4026
23.460,73.4700
23.470,66.9117
23.480,76.4830
23.490,67.0564
23.500,75.8020
23.510,74.6582
23.520,74.4480
23.530,73.6893
23.540,68.9581
23.550,73.6330
23.560,67.6539
23.570,66.0834
23.580,62.6028
23.590,61.8691
23.600,73.4507
23.610,71.6600
23.620,70.6654
23.630,72.6000
23.640,63.5002
23.650,69.6373
23.660,65.9293
23.670,61.8894
23.680,64.5985
23.690,61.6779
23.700,65.8156
23.710,69.4934
23.720,67.2355
23.730,65.0494
23.740,70.0278
23.750,68.1159
23.760,69.6149
23.770,66.0202
23.780,58.4161
23.790,66.3222
23.800,63.8522
23.810,59.6065
23.820,61.6274
23.830,60.0941
23.840,60.2802
23.850,61.3447
23.860,69.6866
23.870,60.5262
23.880,64.7155
23.890,62.3461
23.900,58.1415
23.910,59.2029
23.920,65.1204
23.930,63.0390
23.940,60.9702
23.950,62.9510
23.960,66.3156
23.970,57.7979
23.980,65.7867
23.990,60.3221
24.000,66.1659
24.010,69.3858
24.020,70.1831
24.030,58.3332
24.040,68.5515
24.050,58.1640
24.060,64.8514
24.070,60.1948
24.080,63.2502
24.090,59.4110
24.100,64.3488
24.110,66.9053
24.120,67.1057
24.130,71.1078
24.140,68.1894
24.150,66.3548
24.160,65.7840
24.170,69.0235
24.180,72.5077
24.190,72.2177
24.200,71.1005
24.210,73.0496
24.220,63.0692
24.230,64.8093
24.240,70.2409
24.250,71.4735
24.260,62.3138
24.270,64.1606
24.280,65.1664
24.290,68.1318
24.300,64.3259
24.310,66.1209
24.320,69.0231
24.330,64.9899
24.340,64.9880
24.350,74.0810
24.360,76.0034
24.370,67.9425
24.380,69.7888
24.390,74.0455
24.400,70.0441
24.410,77.1015
24.420,77.5765
24.430,65.6722
24.440,78.1317
24.450,72.4160
24.460,70.1714
24.470,70.6933
24.480,68.1356
24.490,77.3475
24.500,74.9834
24.510,67.7049
24.520,69.4261
24.530,78.7547
24.540,76.8191
24.550,69.7026
24.560,70.1283
24.570,74.8644
24.580,74.9184
24.590,71.5891
24.600,72.5782
24.610,73.1931
24.620,79.8111
24.630,77.7643
24.640,72.9239
24.650,71.3841
24.660,70.3369
24.670,80.0658
24.680,67.7274
24.690,79.6104
24.700,70.7052
24.710,76.9324
24.720,69.1532
24.730,69.7497
24.740,74.6940
24.750,73.5265
24.760,72.7546
24.770,73.8001
24.780,72.4830
24.790,78.6239
24.800,75.0781
24.810,72.7062
24.820,68.7314
24.830,74.5489
24.840,73.5249
24.850,74.1944
24.860,71.6889
24.870,65.6923
24.880,66.8675
24.890,71.6471
24.900,68.0173
24.910,75.8836
24.920,71.7250
24.930,66.9458
24.940,70.4832
24.950,69.0375
24.960,70.6250
24.970,68.5249
24.980,73.6622
24.990,72.9804
25.000,68.4828
25.010,70.3095
25.020,64.9714
25.030,68.4610
25.040,65.0692
25.050,71.8346
25.060,65.0075
25.070,64.5842
25.080,71.4959
25.090,68.8494
25.100,65.2965
25.110,68.0255
25.120,67.8302
25.130,63.6448
25.140,71.4291
25.150,69.6238
25.160,70.4363
25.170,70.1301
25.180,59.5214
25.190,66.0970
25.200,69.1225
25.210,61.9776
25.220,63.3682
25.230,67.5966
25.240,69.2296
25.250,68.5649
25.260,59.7825
25.270,62.9754
25.280,65.0304
25.290,58.9333
25.300,65.0462
25.310,63.7208
25.320,67.4012
25.330,59.4481
25.340,69.4958
25.350,62.5001
25.360,66.4334
25.370,59.1791
25.380,68.2187
25.390,68.2596
25.400,68.5176
25.410,59.7535
25.420,62.9068
25.430,66.1280
25.440,60.9735
25.450,64.5444
25.460,62.3682
25.470,64.6883
25.480,65.7349
25.490,59.1206
25.500,65.6008
25.510,67.1544
25.520,66.0858
25.530,63.3083
25.540,62.5287
25.550,67.8474
25.560,69.5695
25.570,60.2286
25.580,67.1243
25.590,61.7410
25.600,71.5980
25.610,69.7949
25.620,68.3346
25.630,62.3486
25.640,65.7661
25.650,62.3842
25.660,65.8086
25.670,71.3492
25.680,67.2131
25.690,65.9925
25.700,63.4984
25.710,70.9217
25.720,63.7186
25.730,73.8028
25.740,75.7296
25.750,63.9922
25.760,75.9450
25.770,69.8502
25.780,74.7090
25.790,72.3980
25.800,66.5304
25.810,76.5953
25.820,71.2932
25.830,74.4680
25.840,69.3868
25.850,66.4859
25.860,76.6233
25.870,68.1999
25.880,67.7686
25.890,66.5590
25.900,68.0682
25.910,67.9767
25.920,76.3424
25.930,71.1985
25.940,73.3056
25.950,74.3574
25.960,71.8888
25.970,69.8271
25.980,76.2702
25.990,67.9053
26.000,77.8578
26.010,69.8679
26.020,78.8357
26.030,78.7685
26.040,75.1071
26.050,69.7090
26.060,70.7234
26.070,74.9652
26.080,74.9422
26.090,74.2437
26.100,70.1318
26.110,76.5197
26.120,77.3893
26.130,78.2850
26.140,75.4382
26.150,72.7633
26.160,70.5310
26.170,76.1261
26.180,67.4927
26.190,71.6222
26.200,78.2415
26.210,71.5897
26.220,76.6941
26.230,69.4137
26.240,71.1894
26.250,78.0698
26.260,78.3806
26.270,70.6671
26.280,68.9820
26.290,69.0892
26.300,70.3823
26.310,67.5971
26.320,74.8608
26.330,75.4295
26.340,65.9689
26.350,75.8830
26.360,65.9435
26.370,76.0898
26.380,66.5071
26.390,69.9374
26.400,73.6887
26.410,69.4682
26.420,72.9517
26.430,71.6349
26.440,64.1066
26.450,65.0898
26.460,72.1666
26.470,67.7411
26.480,69.2942
26.490,73.8244
26.500,70.0303
26.510,67.7303
26.520,66.6842
26.530,68.0641
26.540,65.2621
26.550,71.8871
26.560,67.8793
26.570,66.4051
26.580,60.6556
26.590,71.7309
26.600,68.1472
26.610,64.7323
26.620,62.2255
26.630,61.8639
26.640,60.5661
26.650,66.6743
26.660,69.5374
26.670,67.0606
26.680,70.2125
26.690,70.5413
26.700,59.4187
26.710,63.6903
26.720,64.7556
26.730,61.3077
26.740,66.4848
26.750,58.6095
26.760,60.6467
26.770,63.7307
26.780,67.2819
26.790,60.3470
26.800,66.8561
26.810,69.3889
26.820,64.3297
26.830,65.1343
26.840,63.0013
26.850,68.9783
26.860,69.8113
26.870,63.0766
26.880,59.4067
26.890,66.2377
26.900,65.9289
26.910,62.5106
26.920,64.4593
26.930,63.8354
26.940,67.0756
26.950,62.1012
26.960,64.1358
26.970,64.1153
26.980,68.1062
26.990,70.9658
27.000,60.6850
27.010,62.9953
27.020,71.5910
27.030,73.1289
27.040,67.4134
27.050,64.4214
27.060,71.2592
27.070,69.2348
27.080,72.4828
27.090,62.8485
27.100,69.1109
27.110,62.4900
27.120,72.7262
27.130,68.1577
27.140,63.8812
27.150,75.3395
27.160,69.6505
27.170,66.1628
27.180,74.4377
27.190,64.6118
27.200,70.4427
27.210,71.1871
27.220,65.0242
27.230,70.6687
27.240,69.1862
27.250,70.5723
27.260,71.5589
27.270,73.1463
27.280,69.0775
27.290,74.1757
27.300,75.5724
27.310,72.0535
27.320,72.1856
27.330,79.3085
27.340,68.2328
27.350,71.7811
27.360,78.6782
27.370,78.6389
27.380,70.7269
27.390,69.7030
27.400,68.8485
27.410,78.6279
27.420,72.4715
27.430,77.5281
27.440,69.9435
27.450,75.5884
27.460,78.6130
27.470,79.4626
27.480,72.2955
27.490,71.0429
27.500,70.0048
27.510,78.1608
27.520,80.6373
27.530,77.0722
27.540,71.2261
27.550,75.7967
27.560,78.9309
27.570,71.3412
27.580,79.0421
27.590,72.2299
27.600,67.9279
27.610,75.4313
27.620,74.9380
27.630,71.6262
27.640,69.6348
27.650,76.3529
27.660,69.4889
27.670,68.9285
27.680,74.3062
27.690,73.3625
27.700,67.2695
27.710,66.2423
27.720,75.8994
27.730,69.1407
27.740,66.9372
27.750,66.2022
27.760,75.0915
27.770,65.2923
27.780,74.1202
27.790,74.8064
27.800,64.6942
27.810,67.7378
27.820,67.3825
27.830,72.6271
27.840,65.5805
27.850,72.5979
27.860,72.4747
27.870,71.8991
27.880,70.5552
27.890,67.0541
27.900,63.3697
27.910,72.0969
27.920,70.5532
27.930,65.3446
27.940,63.5863
27.950,71.4503
27.960,63.8634
27.970,71.0168
27.980,63.8816
27.990,72.0060
28.000,69.0605
28.010,63.9670
28.020,71.5912
28.030,70.6023
28.040,65.4700
28.050,67.1116
28.060,65.0930
28.070,62.3976
28.080,69.9576
28.090,69.9054
28.100,68.7489
28.110,64.4419
28.120,59.9928
28.130,64.7553
28.140,69.4987
28.150,62.3143
28.160,70.6771
28.170,60.8753
28.180,68.0532
28.190,63.6297
28.200,69.4604
28.210,61.4877
28.220,65.3972
28.230,68.8345
28.240,68.0749
28.250,58.4172
28.260,67.3032
28.270,68.2240
28.280,62.5420
28.290,61.7574
28.300,61.2041
28.310,66.2392
28.320,70.2346
28.330,60.7139
28.340,59.3917
28.350,64.4274
28.360,62.3801
28.370,68.1145
28.380,70.9552
28.390,68.6560
28.400,63.0044
28.410,62.6047
28.420,66.6370
28.430,67.1431
28.440,69.2249
28.450,63.3157
28.460,72.2664
28.470,68.9443
28.480,69.4451
28.490,73.5163
28.500,73.8840
28.510,71.2964
28.520,68.7359
28.530,73.9259
28.540,72.6389
28.550,68.6521
28.560,70.9782
28.570,65.0025
28.580,73.1255
28.590,69.4941
28.600,67.7597
28.610,68.5040
28.620,73.8649
28.630,75.2791
28.640,73.6225
28.650,72.4558
28.660,68.6737
28.670,75.8109
28.680,68.7368
28.690,74.5671
28.700,66.7124
28.710,68.0427
28.720,74.3516
28.730,75.4579
28.740,67.4769
28.750,75.1509
28.760,78.0622
28.770,77.7422
28.780,74.3037
28.790,75.4475
28.800,68.0268
28.810,76.0101
28.820,70.0440
28.830,68.7373
28.840,80.2775
28.850,69.5260
28.860,74.1732
28.870,79.0802
28.880,73.5265
28.890,71.7765
28.900,72.4888
28.910,70.8397
28.920,70.2838
28.930,75.8279
28.940,69.0855
28.950,74.7083
28.960,77.2512
28.970,71.0236
28.980,69.5303
28.990,69.6793
29.000,77.1621
29.010,73.6212
29.020,78.1777
29.030,77.6986
29.040,69.6366
29.050,79.6035
29.060,70.1941
29.070,68.1161
29.080,72.5359
29.090,71.5448
29.100,75.5317
29.110,67.3117
29.120,67.5165
29.130,69.3670
29.140,74.1663
29.150,68.0567
29.160,78.5885
29.170,78.5097
29.180,74.2343
29.190,73.0329
29.200,73.2358
29.210,66.0022
29.220,70.4143
29.230,71.6194
29.240,74.8572
29.250,72.5241
29.260,65.2653
29.270,66.1070
29.280,71.0757
29.290,75.9595
29.300,66.0492
29.310,67.1879
29.320,65.5537
29.330,74.4085
29.340,65.5976
29.350,71.6792
29.360,73.1487
29.370,71.3975
29.380,66.7057
29.390,64.6990
29.400,67.0125
29.410,65.1309
29.420,67.4725
29.430,66.5376
29.440,66.6145
29.450,64.2936
29.460,69.1913
29.470,62.2170
29.480,71.7088
29.490,61.5440
29.500,63.2897
29.510,62.3264
29.520,67.5982
29.530,65.2995
29.540,71.6918
29.550,67.9073
29.560,59.8204
29.570,64.7151
29.580,65.0317
29.590,68.3396
29.600,69.7559
29.610,61.5487
29.620,61.2217
29.630,64.7701
29.640,66.4351
29.650,67.7044
29.660,68.2273
29.670,69.3509
29.680,61.2787
29.690,69.3300
29.700,67.3914
29.710,61.2511
29.720,68.1203
29.730,59.5195
29.740,70.8908
29.750,66.8453
29.760,60.5142
29.770,63.4439
29.780,61.3019
29.790,67.5471
29.800,64.9709
29.810,63.0952
29.820,62.5557
29.830,63.9025
29.840,62.1850
29.850,67.2407
29.860,61.0421
29.870,72.6601
29.880,61.2245
29.890,70.8281
29.900,68.2832
29.910,65.8760
29.920,65.9780
29.930,68.4949
29.940,65.0673
29.950,68.3180
29.960,64.6684
29.970,63.4594
29.980,64.4053
29.990,69.6306
30.000,72.1117
30.010,70.4915
30.020,67.5522
30.030,74.1296
30.040,69.8701
30.050,76.9991
30.060,75.6696
30.070,77.4208
30.080,75.9751
30.090,82.6563
30.100,75.5679
30.110,75.9755
30.120,85.1048
30.130,77.5196
30.140,89.6445
30.150,82.2283
30.160,82.7303
30.170,92.1816
30.180,91.8000
30.190,91.5680
30.200,86.1031
30.210,90.5910
30.220,91.0656
30.230,89.6186
30.240,96.1574
30.250,97.0689
30.260,98.8426
30.270,92.5788
30.280,93.4345
30.290,102.2789
30.300,98.8112
30.310,103.2428
30.320,99.4477
30.330,110.4770
30.340,104.4068
30.350,107.4367
30.360,114.2427
30.370,107.4325
30.380,109.1304
30.390,109.5633
30.400,109.1733
30.410,118.8035
30.420,117.3066
30.430,110.3392
30.440,115.6710
30.450,121.3756
30.460,116.2342
30.470,117.0624
30.480,122.9090
30.490,122.5950
30.500,117.1262
30.510,122.7589
30.520,127.5547
30.530,122.0459
30.540,123.1674
30.550,130.3839
30.560,131.8915
30.570,127.5285
30.580,133.5173
30.590,126.5775
30.600,136.2294
30.610,139.2961
30.620,131.5641
30.630,136.2085
30.640,137.0478
30.650,143.2916
30.660,138.2361
30.670,143.0426
30.680,138.6702
30.690,143.9999
30.700,140.1470
30.710,150.8001
30.720,151.3737
30.730,145.4369
30.740,151.3024
30.750,151.8549
30.760,151.5982
30.770,148.0577
30.780,150.8499
30.790,156.1228
30.800,157.4041
30.810,155.6097
30.820,157.3850
30.830,162.3393
30.840,161.1691
30.850,165.6618
30.860,164.7419
30.870,159.7233
30.880,168.3142
30.890,163.9162
30.900,163.1411
30.910,170.4046
30.920,173.1459
30.930,171.1163
30.940,164.3644
30.950,164.1776
30.960,170.9463
30.970,174.4346
30.980,175.1191
30.990,170.4837
31.000,169.9374
31.010,178.6654
31.020,179.9584
31.030,170.0466
31.040,180.9081
31.050,175.8814
31.060,180.4896
31.070,176.2530
31.080,173.2512
31.090,173.3730
31.100,176.1169
31.110,170.4924
31.120,169.5662
31.130,175.2655
31.140,172.3444
31.150,173.5747
31.160,181.9590
31.170,175.1746
31.180,181.9818
31.190,176.3403
31.200,182.0470
31.210,170.5467
31.220,181.1360
31.230,171.7454
31.240,175.5178
31.250,180.7836
31.260,173.1833
31.270,176.7669
31.280,175.2832
31.290,172.8148
31.300,173.2422
31.310,177.5984
31.320,180.8762
31.330,174.9587
31.340,176.4512
31.350,171.1747
31.360,170.4871
31.370,175.7619
31.380,171.9755
31.390,175.7444
31.400,170.6508
31.410,179.8382
31.420,182.0154
31.430,170.9909
31.440,170.0073
31.450,173.6745
31.460,171.7985
31.470,170.2239
31.480,170.3875
31.490,177.9786
31.500,170.4849
31.510,175.0283
31.520,176.7692
31.530,181.2764
31.540,176.9709
31.550,172.3932
31.560,171.7828
31.570,181.2868
31.580,171.9058
31.590,173.1446
31.600,175.7540
31.610,178.7209
31.620,177.9157
31.630,171.5474
31.640,171.8171
31.650,171.1796
31.660,175.0891
31.670,180.7551
31.680,175.7282
31.690,172.4432
31.700,177.3590
31.710,172.0620
31.720,172.6139
31.730,174.4196
31.740,172.4412
31.750,175.5361
31.760,177.5714
31.770,173.7072
31.780,179.9686
31.790,181.8592
31.800,179.4253
31.810,173.0376
31.820,178.0171
31.830,171.6809
31.840,177.7620
31.850,177.3402
31.860,177.7101
31.870,177.3824
31.880,171.3433
31.890,173.3812
31.900,178.8490
31.910,174.4248
31.920,170.3805
31.930,180.1512
31.940,176.1887
31.950,171.3944
31.960,176.6432
31.970,180.0452
31.980,176.0473
31.990,171.2829
32.000,71.0753
32.010,67.4365
32.020,71.1252
32.030,71.9816
32.040,75.4149
32.050,74.6276
32.060,70.7706
32.070,74.2749
32.080,72.2176
32.090,69.5925
32.100,70.7512
32.110,76.6114
32.120,74.3457
32.130,73.0488
32.140,67.1134
32.150,64.6488
32.160,70.9104
32.170,63.7927
32.180,64.5958
32.190,63.3380
32.200,73.3708
32.210,63.4224
32.220,65.9595
32.230,69.6008
32.240,65.5712
32.250,67.4193
32.260,64.9209
32.270,63.5788
32.280,73.5760
32.290,70.9715
32.300,68.5497
32.310,67.3277
32.320,65.4000
32.330,66.3632
32.340,63.2190
32.350,60.8572
32.360,70.9253
32.370,69.8542
32.380,68.8691
32.390,64.3446
32.400,61.9817
32.410,66.9676
32.420,69.6243
32.430,62.5478
32.440,64.0315
32.450,67.7182
32.460,64.3367
32.470,69.3499
32.480,64.4692
32.490,66.9403
32.500,62.3548
32.510,71.5121
32.520,60.5906
32.530,63.2287
32.540,70.9421
32.550,61.1882
32.560,71.9880
32.570,61.2049
32.580,68.3563
32.590,71.5314
32.600,65.1741
32.610,59.9892
32.620,69.9828
32.630,70.1878
32.640,69.6460
32.650,62.8165
32.660,61.3836
32.670,63.2863
32.680,65.5117
32.690,68.5728
32.700,65.1237
32.710,62.1286
32.720,71.5718
32.730,62.1285
32.740,68.7429
32.750,66.2856
32.760,63.6759
32.770,74.6481
32.780,72.7162
32.790,73.6813
32.800,74.0447
32.810,65.7200
32.820,66.8937
32.830,65.3895
32.840,68.6080
32.850,72.6691
32.860,75.5052
32.870,71.8016
32.880,66.0917
32.890,71.4141
32.900,75.2533
32.910,65.6075
32.920,71.2258
32.930,77.4601
32.940,76.0853
32.950,77.8375
32.960,68.3714
32.970,69.7196
32.980,76.7642
32.990,72.3892
33.000,72.8962
33.010,76.6410
33.020,77.4763
33.030,78.7282
33.040,74.8064
33.050,72.8371
33.060,79.6777
33.070,75.4656
33.080,77.1141
33.090,71.6121
33.100,78.8461
33.110,73.3789
33.120,79.0473
33.130,75.1139
33.140,72.2075
33.150,72.0446
33.160,71.4321
33.170,80.1326
33.180,76.8703
33.190,75.4948
33.200,76.3418
33.210,72.5104
33.220,73.7086
33.230,72.5246
33.240,70.0422
33.250,76.3167
33.260,70.6637
33.270,73.8972
33.280,72.1184
33.290,73.3483
33.300,80.9175
33.310,75.5515
33.320,79.2943
33.330,79.7296
33.340,80.8390
33.350,77.2504
33.360,74.9456
33.370,71.2769
33.380,74.7660
33.390,75.5071
33.400,78.1773
33.410,77.2368
33.420,70.4479
33.430,72.7690
33.440,79.0344
33.450,71.3701
33.460,71.5727
33.470,77.7863
33.480,77.1558
33.490,71.9788
33.500,71.3671
33.510,77.5630
33.520,73.6128
33.530,73.2516
33.540,75.2052
33.550,65.8878
33.560,75.2152
33.570,70.2123
33.580,69.6941
33.590,67.6806
33.600,71.6748
33.610,68.3518
33.620,63.8300
33.630,63.8095
33.640,69.5277
33.650,73.9070
33.660,65.4366
33.670,73.4335
33.680,68.1797
33.690,70.0931
33.700,67.9454
33.710,66.7107
33.720,63.3560
33.730,65.7427
33.740,67.3846
33.750,69.4715
33.760,61.3172
33.770,70.0544
33.780,69.8757
33.790,69.8777
33.800,64.5821
33.810,66.8862
33.820,62.7714
33.830,70.5327
33.840,61.4185
33.850,70.9205
33.860,71.2457
33.870,65.5694
33.880,63.9110
33.890,70.9060
33.900,69.9728
33.910,62.5477
33.920,63.7562
33.930,68.6634
33.940,66.5817
33.950,63.2008
33.960,63.8578
33.970,66.1321
33.980,63.8615
33.990,72.1526
34.000,67.0450
34.010,70.4331
34.020,70.7609
34.030,63.0266
34.040,66.3965
34.050,65.2783
34.060,65.4974
34.070,68.3729
34.080,63.8787
34.090,63.1253
34.100,71.6288
34.110,69.0654
34.120,64.0252
34.130,73.8005
34.140,63.7144
34.150,70.8901
34.160,69.3577
34.170,63.6787
34.180,66.8421
34.190,67.5354
34.200,63.4093
34.210,67.0435
34.220,71.3767
34.230,69.5095
34.240,71.1435
34.250,66.8571
34.260,75.0665
34.270,68.3037
34.280,69.4675
34.290,66.3262
34.300,71.9636
34.310,67.8631
34.320,72.3069
34.330,66.4093
34.340,70.3405
34.350,78.0922
34.360,75.8991
34.370,75.6278
34.380,74.6170
34.390,78.2599
34.400,71.6436
34.410,79.9415
34.420,67.9864
34.430,69.6482
34.440,76.6089
34.450,73.8687
34.460,68.5085
34.470,73.4018
34.480,79.9788
34.490,80.8055
34.500,75.5085
34.510,78.7878
34.520,69.3901
34.530,81.5169
34.540,76.5433
34.550,78.6580
34.560,78.5660
34.570,73.3832
34.580,74.0224
34.590,78.2955
34.600,71.8819
34.610,81.7658
34.620,77.6195
34.630,79.2028
34.640,76.6241
34.650,74.6596
34.660,81.5476
34.670,72.7834
34.680,76.0010
34.690,82.3284
34.700,70.4356
34.710,70.1508
34.720,72.8350
34.730,71.2004
34.740,70.1843
34.750,78.1509
34.760,75.4588
34.770,77.4542
34.780,81.0921
34.790,71.9438
34.800,80.6148
34.810,70.3971
34.820,72.3705
34.830,80.1369
34.840,79.8516
34.850,79.8434
34.860,76.4096
34.870,76.0125
34.880,73.5679
34.890,69.5046
34.900,76.0815
34.910,76.5316
34.920,70.7721
34.930,70.2032
34.940,70.3207
34.950,77.2765
34.960,68.8388
34.970,78.0778
34.980,68.0856
34.990,74.9462
35.000,73.1681
35.010,77.2547
35.020,64.6172
35.030,69.0003
35.040,71.2206
35.050,69.7658
35.060,74.5091
35.070,73.4941
35.080,73.2536
35.090,71.6757
35.100,67.6893
35.110,68.0412
35.120,63.8491
35.130,71.2974
35.140,62.5248
35.150,64.9054
35.160,70.7545
35.170,71.2673
35.180,73.4320
35.190,67.1602
35.200,66.4861
35.210,67.6445
35.220,73.3824
35.230,68.0970
35.240,62.9023
35.250,67.9379
35.260,65.7137
35.270,72.6751
35.280,68.3149
35.290,69.6144
35.300,64.5100
35.310,66.7599
35.320,63.6609
35.330,66.3072
35.340,60.5040
35.350,68.5935
35.360,62.6737
35.370,65.1996
35.380,69.8356
35.390,65.8142
35.400,63.6155
35.410,70.6287
35.420,67.6261
35.430,67.0615
35.440,66.2927
35.450,64.8138
35.460,61.8008
35.470,70.4154
35.480,67.3598
35.490,68.4178
35.500,63.7003
35.510,71.2558
35.520,65.9591
35.530,72.3808
35.540,71.6779
35.550,67.1628
35.560,72.5252
35.570,62.5877
35.580,73.1295
35.590,72.7678
35.600,71.7662
35.610,68.0624
35.620,63.7227
35.630,71.5904
35.640,65.0869
35.650,71.3680
35.660,75.2276
35.670,71.4482
35.680,67.2419
35.690,76.3999
35.700,66.2369
35.710,76.2982
35.720,67.6966
35.730,72.6887
35.740,70.0822
35.750,74.4576
35.760,69.2024
35.770,66.3122
35.780,67.5961
35.790,79.1071
35.800,76.4015
35.810,68.4989
35.820,73.8816
35.830,72.6885
35.840,70.4661
35.850,75.6589
35.860,76.7868
35.870,74.1078
35.880,78.6374
35.890,69.6218
35.900,75.5464
35.910,70.7028
35.920,77.8993
35.930,75.8049
35.940,77.9985
35.950,81.4714
35.960,77.2882
35.970,78.4308
35.980,81.7250
35.990,76.7037
36.000,76.8521
36.010,74.4890
36.020,76.5245
36.030,73.7304
36.040,81.8205
36.050,80.8874
36.060,79.9393
36.070,82.5312
36.080,80.1743
36.090,74.0168
36.100,70.2078
36.110,72.4029
36.120,74.0457
36.130,81.1505
36.140,71.8089
36.150,72.6830
36.160,79.4720
36.170,75.9586
36.180,74.1862
36.190,77.3254
36.200,74.1643
36.210,73.6917
36.220,70.0880
36.230,77.2859
36.240,76.1129
36.250,79.8150
36.260,74.3389
36.270,71.1942
36.280,79.5306
36.290,70.0827
36.300,78.8345
36.310,78.2160
36.320,68.0162
36.330,75.6002
36.340,77.4706
36.350,75.1720
36.360,75.4475
36.370,70.1566
36.380,78.8043
36.390,66.0994
36.400,73.5156
36.410,73.2279
36.420,77.1105
36.430,71.0685
36.440,76.8060
36.450,73.9790
36.460,66.3293
36.470,69.0635
36.480,69.8916
36.490,68.4449
36.500,71.9811
36.510,73.7096
36.520,74.1813
36.530,66.9676
36.540,70.3502
36.550,69.2753
36.560,73.9900
36.570,62.4565
36.580,65.5693
36.590,62.4143
36.600,71.9608
36.610,67.1772
36.620,63.6980
36.630,65.0731
36.640,62.2519
36.650,71.8869
36.660,68.9301
36.670,68.3040
36.680,69.2189
36.690,68.0395
36.700,70.2723
36.710,68.1999
36.720,63.2373
36.730,68.9168
36.740,63.8140
36.750,60.5284
36.760,66.1063
36.770,72.1813
36.780,60.5675
36.790,62.2403
36.800,61.6512
36.810,67.4849
36.820,67.7887
36.830,69.4159
36.840,68.9664
36.850,65.0783
36.860,64.5672
36.870,64.0096
36.880,72.1077
36.890,63.2717
36.900,69.6015
36.910,65.7661
36.920,65.6934
36.930,63.7961
36.940,61.6327
36.950,66.7537
36.960,73.9714
36.970,71.2037
36.980,73.3110
36.990,63.6872
37.000,67.1197
37.010,63.1687
37.020,65.9122
37.030,68.5632
37.040,71.2149
37.050,72.3021
37.060,66.5117
37.070,69.7731
37.080,67.4269
37.090,72.7722
37.100,69.3741
37.110,67.7218
37.120,75.0300
37.130,75.8427
37.140,75.2673
37.150,68.7284
37.160,69.7423
37.170,71.9114
37.180,68.0094
37.190,74.2573
37.200,72.1593
37.210,67.5149
37.220,70.0094
37.230,69.4566
37.240,73.4568
37.250,73.5717
37.260,74.0768
37.270,76.0805
37.280,72.9371
37.290,76.4759
37.300,69.9688
37.310,79.3013
37.320,77.2670
37.330,79.8204
37.340,72.6254
37.350,76.4829
37.360,77.0541
37.370,81.6197
37.380,76.9467
37.390,77.8518
37.400,81.1998
37.410,79.9137
37.420,77.2734
37.430,82.7186
37.440,82.0134
37.450,71.6841
37.460,81.5576
37.470,72.5367
37.480,70.8342
37.490,78.3111
37.500,75.1924
37.510,71.3828
37.520,81.2684
37.530,77.4539
37.540,78.3787
37.550,77.3094
37.560,81.7079
37.570,80.1217
37.580,79.3229
37.590,78.1671
37.600,76.5309
37.610,71.3056
37.620,77.0078
37.630,73.1179
37.640,76.2780
37.650,79.9484
37.660,73.5000
37.670,70.8626
37.680,69.0690
37.690,71.9304
37.700,75.6150
37.710,71.3262
37.720,72.9707
37.730,72.8859
37.740,80.2537
37.750,69.2398
37.760,69.5370
37.770,79.2310
37.780,71.7025
37.790,67.7263
37.800,71.5496
37.810,77.7176
37.820,74.5174
37.830,77.1886
37.840,78.0560
37.850,74.1150
37.860,75.3210
37.870,76.6694
37.880,70.8544
37.890,67.9575
37.900,76.9608
37.910,71.9581
37.920,67.0232
37.930,69.3115
37.940,75.1475
37.950,66.6182
37.960,68.3330
37.970,68.1507
37.980,67.3199
37.990,72.9014
38.000,67.0804
38.010,74.5059
38.020,70.0498
38.030,64.5006
38.040,73.3375
38.050,69.2078
38.060,73.4420
38.070,68.0633
38.080,62.7247
38.090,66.1624
38.100,65.3784
38.110,71.7892
38.120,69.3200
38.130,71.3749
38.140,69.6538
38.150,72.6763
38.160,65.2372
38.170,69.2055
38.180,61.1214
38.190,73.1604
38.200,69.9062
38.210,71.5535
38.220,64.1639
38.230,64.5252
38.240,72.4795
38.250,66.6474
38.260,68.4294
38.270,70.0500
38.280,63.5722
38.290,71.6873
38.300,62.2283
38.310,66.2438
38.320,62.6550
38.330,72.4545
38.340,73.5073
38.350,71.0670
38.360,66.3472
38.370,68.3654
38.380,62.7889
38.390,65.8869
38.400,70.8979
38.410,70.1582
38.420,72.9052
38.430,73.5173
38.440,67.7746
38.450,65.7369
38.460,70.7211
38.470,75.8533
38.480,71.3512
38.490,67.1369
38.500,75.9889
38.510,76.2149
38.520,66.8368
38.530,73.5159
38.540,69.5105
38.550,66.7235
38.560,70.7553
38.570,68.1458
38.580,71.8470
38.590,70.9324
38.600,70.6828
38.610,76.4338
38.620,74.7764
38.630,77.6359
38.640,78.6236
38.650,71.1044
38.660,75.6148
38.670,73.8123
38.680,78.8972
38.690,69.3355
38.700,74.3974
38.710,75.3752
38.720,74.3611
38.730,80.3086
38.740,78.2549
38.750,73.3518
38.760,78.6108
38.770,74.9957
38.780,79.7719
38.790,75.8354
38.800,73.8071
38.810,77.7571
38.820,73.6278
38.830,72.5299
38.840,72.3573
38.850,73.3604
38.860,77.7622
38.870,80.1036
38.880,80.8524
38.890,82.2704
38.900,77.7195
38.910,78.7245
38.920,79.0238
38.930,73.7250
38.940,73.6788
38.950,74.6584
38.960,81.8215
38.970,72.0696
38.980,81.0140
38.990,73.0636
39.000,79.1524
39.010,75.0961
39.020,77.5133
39.030,79.1305
39.040,81.0095
39.050,80.3408
39.060,73.4420
39.070,76.3166
39.080,79.4511
39.090,81.3901
39.100,75.9434
39.110,72.2750
39.120,69.5291
39.130,79.8658
39.140,77.6845
39.150,70.3979
39.160,71.9730
39.170,78.3353
39.180,77.3902
39.190,77.4658
39.200,70.6454
39.210,77.6992
39.220,74.2387
39.230,74.0390
39.240,71.5675
39.250,76.7626
39.260,67.3518
39.270,73.0989
39.280,76.6189
39.290,73.0653
39.300,77.9761
39.310,73.8414
39.320,66.0570
39.330,66.9403
39.340,67.5816
39.350,68.5463
39.360,68.9351
39.370,67.9537
39.380,65.7940
39.390,73.0564
39.400,64.9114
39.410,66.1623
39.420,67.2935
39.430,68.7464
39.440,66.0502
39.450,69.1657
39.460,67.4466
39.470,67.5315
39.480,67.8208
39.490,62.1314
39.500,69.9277
39.510,63.9270
39.520,73.6771
39.530,66.3577
39.540,67.4387
39.550,63.3170
39.560,61.9118
39.570,67.6223
39.580,63.8265
39.590,62.3144
39.600,62.5692
39.610,65.1541
39.620,68.9019
39.630,65.4703
39.640,62.7754
39.650,71.5671
39.660,62.9905
39.670,63.0406
39.680,62.0906
39.690,70.7642
39.700,71.7759
39.710,61.9788
39.720,68.0643
39.730,61.6370
39.740,69.9729
39.750,67.2658
39.760,64.1295
39.770,72.3723
39.780,69.1893
39.790,74.3727
39.800,74.7006
39.810,63.0301
39.820,70.1199
39.830,72.0421
39.840,69.4070
39.850,70.0729
39.860,69.6857
39.870,68.2849
39.880,64.4848
39.890,69.3990
39.900,75.7724
39.910,72.2708
39.920,72.4133
39.930,65.2411
39.940,76.3818
39.950,66.9907
39.960,72.6694
39.970,71.6846
39.980,77.4635
39.990,77.6645
40.000,69.4083
40.010,68.3237
40.020,70.9171
40.030,67.6634
40.040,67.5036
40.050,70.7879
40.060,68.6551
40.070,69.0802
40.080,70.0157
40.090,72.6483
40.100,72.1019
40.110,73.1797
40.120,79.8953
40.130,76.7348
40.140,69.3264
40.150,79.6877
40.160,81.9681
40.170,81.8212
40.180,70.2845
40.190,79.4961
40.200,77.2014
40.210,72.4055
40.220,81.9539
40.230,73.8087
40.240,75.3052
40.250,79.5815
40.260,74.2842
40.270,72.8473
40.280,78.5860
40.290,73.8171
40.300,73.2751
40.310,83.2545
40.320,80.8009
40.330,77.6679
40.340,76.0489
40.350,81.0912
40.360,78.5157
40.370,78.5570
40.380,81.2022
40.390,75.5410
40.400,73.1508
40.410,76.9946
40.420,74.3886
40.430,73.1827
40.440,75.6661
40.450,77.9530
40.460,82.2232
40.470,76.6224
40.480,80.6465
40.490,76.8745
40.500,76.7825
40.510,80.4696
40.520,80.7470
40.530,72.2020
40.540,78.9191
40.550,74.9654
40.560,74.4425
40.570,79.0242
40.580,81.4674
40.590,79.4638
40.600,76.2356
40.610,70.3014
40.620,71.3394
40.630,70.9029
40.640,69.7386
40.650,78.4223
40.660,72.8294
40.670,76.0370
40.680,78.8393
40.690,68.4684
40.700,71.1638
40.710,74.2918
40.720,77.2921
40.730,78.1363
40.740,67.4801
40.750,73.4163
40.760,76.2674
40.770,72.6352
40.780,74.4270
40.790,70.8880
40.800,68.4577
40.810,74.8221
40.820,74.6718
40.830,64.9407
40.840,66.8737
40.850,67.1080
40.860,63.8571
40.870,74.1732
40.880,67.1056
40.890,72.2680
40.900,65.8712
40.910,65.6514
40.920,72.5775
40.930,66.7505
40.940,74.0713
40.950,69.7593
40.960,63.1250
40.970,67.9043
40.980,68.2758
40.990,71.4593
41.000,65.8839
41.010,71.2995
41.020,62.4506
41.030,62.8549
41.040,63.4413
41.050,70.5415
41.060,65.3665
41.070,71.4928
41.080,66.2352
41.090,66.3273
41.100,69.0270
41.110,71.4056
41.120,64.3858
41.130,73.4269
41.140,67.6415
41.150,71.0220
41.160,73.8939
41.170,68.1128
41.180,68.0135
41.190,71.4278
41.200,62.7859
41.210,73.0345
41.220,74.0919
41.230,70.3314
41.240,74.6311
41.250,69.7127
41.260,74.7464
41.270,64.8334
41.280,75.2240
41.290,69.8423
41.300,67.6196
41.310,73.5298
41.320,67.6229
41.330,64.9344
41.340,74.2679
41.350,73.2158
41.360,76.3245
41.370,72.0523
41.380,70.9461
41.390,70.0837
41.400,73.4173
41.410,68.7765
41.420,74.0773
41.430,75.7080
41.440,78.4369
41.450,68.5560
41.460,67.5036
41.470,79.7337
41.480,73.3631
41.490,69.3609
41.500,72.2243
41.510,69.8773
41.520,77.7928
41.530,74.2580
41.540,74.8468
41.550,78.5457
41.560,69.9331
41.570,70.5136
41.580,77.2527
41.590,72.0792
41.600,74.9017
41.610,80.5838
41.620,71.3063
41.630,80.1280
41.640,72.8915
41.650,77.8589
41.660,74.1923
41.670,73.0225
41.680,81.2626
41.690,77.0855
41.700,74.5596
41.710,79.3149
41.720,79.5872
41.730,82.2098
41.740,78.8221
41.750,74.1161
41.760,80.7359
41.770,72.0895
41.780,79.9340
41.790,83.9217
41.800,76.4998
41.810,74.6391
41.820,77.6265
41.830,80.3067
41.840,79.5315
41.850,77.7201
41.860,73.1512
41.870,83.1428
41.880,77.4125
41.890,77.3939
41.900,81.5227
41.910,73.3835
41.920,81.0722
41.930,74.8849
41.940,74.7453
41.950,80.2283
41.960,82.6349
41.970,76.5627
41.980,81.3480
41.990,72.5705
42.000,79.3922
42.010,73.1326
42.020,73.4778
42.030,72.6740
42.040,71.6294
42.050,72.3359
42.060,69.6858
42.070,73.9505
42.080,77.2037
42.090,75.0492
42.100,72.6632
42.110,73.2814
42.120,74.5966
42.130,70.2153
42.140,76.5437
42.150,75.8493
42.160,67.7743
42.170,71.5491
42.180,70.2163
42.190,70.0539
42.200,77.3384
42.210,76.6011
42.220,68.4786
42.230,67.1952
42.240,64.8962
42.250,65.0498
42.260,66.2161
42.270,64.6343
42.280,74.7783
42.290,69.8273
42.300,63.4303
42.310,66.9859
42.320,72.2684
42.330,72.6941
42.340,67.9680
42.350,73.1404
42.360,67.0474
42.370,66.1311
42.380,72.0370
42.390,68.6016
42.400,64.7498
42.410,72.7385
42.420,66.8145
42.430,62.7912
42.440,64.2233
42.450,64.3495
42.460,68.3262
42.470,61.9254
42.480,69.9647
42.490,70.7167
42.500,64.1817
42.510,71.0178
42.520,68.9135
42.530,68.5279
42.540,72.5472
42.550,65.9341
42.560,71.8895
42.570,64.4468
42.580,64.5878
42.590,66.6605
42.600,73.8335
42.610,66.7494
42.620,70.6753
42.630,68.6095
42.640,63.7501
42.650,65.8186
42.660,73.4686
42.670,72.5494
42.680,67.3959
42.690,70.8753
42.700,68.5888
42.710,73.9983
42.720,68.4628
42.730,69.0029
42.740,64.2695
42.750,68.8004
42.760,66.6802
42.770,71.7634
42.780,71.7066
42.790,72.3281
42.800,71.8578
42.810,77.4343
42.820,72.4171
42.830,73.9060
42.840,75.3215
42.850,67.9611
42.860,73.5471
42.870,76.5179
42.880,72.8229
42.890,77.6534
42.900,67.9036
42.910,76.4891
42.920,72.4209
42.930,72.0840
42.940,77.8376
42.950,68.9231
42.960,73.8571
42.970,76.7143
42.980,73.2029
42.990,77.2588
43.000,80.1126
43.010,69.9202
43.020,80.2706
43.030,78.1753
43.040,79.8251
43.050,71.9635
43.060,73.2610
43.070,74.7088
43.080,82.0630
43.090,76.5616
43.100,80.5835
43.110,72.0124
43.120,80.5298
43.130,73.2545
43.140,71.7565
43.150,81.7446
43.160,81.2981
43.170,83.2146
43.180,77.3474
43.190,83.0703
43.200,73.8837
43.210,77.1060
43.220,73.4868
43.230,79.2382
43.240,84.3515
43.250,81.7036
43.260,76.3730
43.270,78.7347
43.280,75.8023
43.290,83.0500
43.300,82.6329
43.310,78.6734
43.320,79.0762
43.330,74.5483
43.340,79.2100
43.350,78.2365
43.360,72.0213
43.370,79.8535
43.380,81.5372
43.390,81.7363
43.400,72.9224
43.410,71.2368
43.420,81.0413
43.430,75.5237
43.440,78.9267
43.450,76.6738
43.460,79.7782
43.470,80.1486
43.480,77.7589
43.490,70.9614
43.500,77.5378
43.510,73.1118
43.520,69.7715
43.530,75.3265
43.540,71.0453
43.550,71.0461
43.560,76.1839
43.570,75.0449
43.580,68.5213
43.590,73.3591
43.600,78.5611
43.610,75.4765
43.620,73.8614
43.630,74.9530
43.640,74.5726
43.650,73.1687
43.660,74.8369
43.670,66.7706
43.680,74.9120
43.690,70.8974
43.700,69.7220
43.710,70.7628
43.720,66.0023
43.730,75.2879
43.740,68.1452
43.750,74.1678
43.760,63.3864
43.770,68.0664
43.780,71.1034
43.790,66.4097
43.800,70.4907
43.810,65.3905
43.820,65.0266
43.830,66.3832
43.840,64.3076
43.850,74.7137
43.860,64.0544
43.870,74.2716
43.880,64.0199
43.890,66.4152
43.900,65.1286
43.910,71.0424
43.920,62.7402
43.930,72.3408
43.940,68.0507
43.950,62.6017
43.960,73.5550
43.970,71.4475
43.980,66.4849
43.990,72.9477
44.000,69.5846
44.010,66.3092
44.020,64.2507
44.030,69.2828
44.040,65.2821
44.050,63.9496
44.060,74.0989
44.070,73.2526
44.080,67.1061
44.090,74.5981
44.100,69.7764
44.110,75.2146
44.120,65.5949
44.130,71.6094
44.140,65.7239
44.150,76.5870
44.160,75.3415
44.170,75.7804
44.180,73.5750
44.190,71.4293
44.200,76.5466
44.210,70.1921
44.220,65.6029
44.230,70.2390
44.240,69.7440
44.250,75.9121
44.260,74.6842
44.270,68.5269
44.280,77.3660
44.290,78.9060
44.300,69.8862
44.310,72.1084
44.320,80.1447
44.330,78.5516
44.340,75.7091
44.350,75.0950
44.360,77.9261
44.370,73.2191
44.380,79.9287
44.390,69.5348
44.400,77.0130
44.410,77.9116
44.420,75.1238
44.430,75.5584
44.440,73.0201
44.450,72.4836
44.460,70.9611
44.470,76.5283
44.480,81.1939
44.490,79.4474
44.500,73.6688
44.510,75.6215
44.520,81.8839
44.530,81.0751
44.540,73.3814
44.550,75.4678
44.560,73.7790
44.570,83.4952
44.580,80.5780
44.590,82.8628
44.600,80.5668
44.610,76.0524
44.620,73.2481
44.630,74.6360
44.640,81.4215
44.650,72.5313
44.660,74.9256
44.670,74.6866
44.680,80.0809
44.690,78.7092
44.700,79.2657
44.710,80.9561
44.720,81.6771
44.730,80.9550
44.740,83.7557
44.750,75.3791
44.760,80.1287
44.770,73.7193
44.780,74.4642
44.790,78.2958
44.800,74.1754
44.810,76.0396
44.820,77.1251
44.830,74.7284
44.840,77.5854
44.850,70.5686
44.860,72.6974
44.870,79.4331
44.880,74.6747
44.890,72.1481
44.900,69.4816
44.910,73.1418
44.920,69.7827
44.930,68.8380
44.940,73.9436
44.950,76.4247
44.960,75.5973
44.970,69.3777
44.980,70.4270
44.990,68.5215
45.000,69.5299
45.010,80.0027
45.020,75.4709
45.030,76.3547
45.040,82.9553
45.050,77.9363
45.060,82.7355
45.070,81.1090
45.080,76.1198
45.090,85.8672
45.100,86.6961
45.110,84.3315
45.120,82.4399
45.130,90.4033
45.140,91.7069
45.150,93.5668
45.160,86.3675
45.170,92.9461
45.180,90.0724
45.190,90.7768
45.200,91.8234
45.210,92.1898
45.220,91.8395
45.230,98.0487
45.240,104.8728
45.250,95.0890
45.260,105.1020
45.270,108.4321
45.280,106.8440
45.290,108.4090
45.300,103.2189
45.310,102.7155
45.320,112.3489
45.330,113.1030
45.340,110.8747
45.350,111.9608
45.360,116.3730
45.370,115.4380
45.380,112.3060
45.390,113.7059
45.400,112.7427
45.410,113.9474
45.420,125.3937
45.430,123.3090
45.440,122.4511
45.450,123.4124
45.460,129.6307
45.470,131.6900
45.480,130.5653
45.490,127.3273
45.500,126.2103
45.510,124.6382
45.520,133.1895
45.530,130.1345
45.540,132.1762
45.550,129.4780
45.560,137.2014
45.570,136.0506
45.580,131.9770
45.590,138.3488
45.600,143.7368
45.610,144.6587
45.620,136.9159
45.630,145.9149
45.640,148.3172
45.650,140.4255
45.660,144.5471
45.670,145.5598
45.680,149.2350
45.690,153.5709
45.700,154.9255
45.710,154.6811
45.720,150.8251
45.730,150.3754
45.740,149.4686
45.750,162.8511
45.760,160.1097
45.770,160.9537
45.780,155.2111
45.790,155.5474
45.800,162.3191
45.810,165.2982
45.820,163.6085
45.830,163.2809
45.840,169.7482
45.850,167.4181
45.860,170.3226
45.870,169.2266
45.880,168.4279
45.890,170.5624
45.900,174.6162
45.910,180.4944
45.920,177.6800
45.930,176.9780
45.940,176.9715
45.950,177.5326
45.960,179.5581
45.970,185.9820
45.980,177.8571
45.990,188.3651
46.000,181.9118
46.010,178.2268
46.020,187.3742
46.030,178.8066
46.040,188.1710
46.050,188.6919
46.060,188.6709
46.070,189.3842
46.080,184.7591
46.090,188.0169
46.100,181.7476
46.110,180.0182
46.120,185.6677
46.130,188.9166
46.140,190.7574
46.150,185.7408
46.160,189.6765
46.170,180.5010
46.180,190.2463
46.190,181.6465
46.200,189.4882
46.210,178.9280
46.220,189.9246
46.230,185.1398
46.240,184.1553
46.250,180.3170
46.260,184.3015
46.270,181.9301
46.280,178.5377
46.290,190.1879
46.300,179.5649
46.310,183.8677
46.320,183.4036
46.330,184.2161
46.340,188.2606
46.350,181.6363
46.360,189.9512
46.370,189.6738
46.380,179.8330
46.390,183.3189
46.400,179.5064
46.410,187.9801
46.420,189.1059
46.430,178.8620
46.440,189.9857
46.450,186.9543
46.460,182.8417
46.470,187.7426
46.480,183.3602
46.490,185.2756
46.500,189.5749
46.510,189.9241
46.520,180.3522
46.530,181.5093
46.540,183.5774
46.550,180.2462
46.560,185.4893
46.570,185.0616
46.580,186.8342
46.590,180.0581
46.600,186.4316
46.610,181.3076
46.620,186.3096
46.630,188.0935
46.640,184.3203
46.650,186.4764
46.660,187.1372
46.670,180.9315
46.680,187.3535
46.690,179.4186
46.700,185.8252
46.710,179.0255
46.720,179.5104
46.730,182.9277
46.740,186.9287
46.750,181.3297
46.760,182.7550
46.770,190.0600
46.780,181.2944
46.790,182.9696
46.800,189.1225
46.810,185.5475
46.820,190.6900
46.830,189.3654
46.840,184.0654
46.850,182.5807
46.860,190.7349
46.870,183.0130
46.880,182.0925
46.890,188.2954
46.900,185.3578
46.910,185.0081
46.920,183.1746
46.930,181.7947
46.940,181.6612
46.950,189.7362
46.960,179.7074
46.970,183.8510
46.980,190.3763
46.990,185.8022
47.000,75.4721
47.010,76.7237
47.020,66.0081
47.030,76.4482
47.040,68.0265
47.050,78.1082
47.060,73.1923
47.070,71.2020
47.080,67.3893
47.090,76.6928
47.100,76.5106
47.110,77.4236
47.120,75.5879
47.130,71.5225
47.140,72.5187
47.150,68.9662
47.160,69.0056
47.170,69.9659
47.180,73.7000
47.190,76.8049
47.200,76.8387
47.210,71.2191
47.220,80.8779
47.230,72.1071
47.240,77.8118
47.250,80.9731
47.260,75.6947
47.270,81.1741
47.280,76.7150
47.290,75.2291
47.300,81.5579
47.310,77.3901
47.320,83.3787
47.330,79.1393
47.340,72.9404
47.350,77.0115
47.360,76.5286
47.370,84.2428
47.380,77.7462
47.390,75.3703
47.400,76.3599
47.410,75.0353
47.420,85.1022
47.430,76.4384
47.440,82.6907
47.450,82.7873
47.460,82.8288
47.470,76.6100
47.480,79.0479
47.490,80.1814
47.500,84.1938
47.510,84.7638
47.520,75.7180
47.530,73.9489
47.540,78.4449
47.550,78.8830
47.560,80.6400
47.570,79.5935
47.580,75.5766
47.590,74.7585
47.600,81.4402
47.610,83.0875
47.620,83.0250
47.630,80.0193
47.640,77.9502
47.650,78.9964
47.660,72.8399
47.670,72.5357
47.680,73.7577
47.690,83.8157
47.700,73.2796
47.710,83.4540
47.720,82.9465
47.730,72.8767
47.740,72.6947
47.750,76.5614
47.760,80.3817
47.770,76.7834
47.780,74.7827
47.790,78.8654
47.800,71.0143
47.810,74.6439
47.820,80.7343
47.830,79.9460
47.840,74.6582
47.850,78.8324
47.860,75.0285
47.870,77.8279
47.880,79.2920
47.890,78.9197
47.900,76.7872
47.910,76.1745
47.920,70.5571
47.930,70.2091
47.940,70.3066
47.950,72.5180
47.960,66.7278
47.970,75.3643
47.980,75.0173
47.990,74.2386
48.000,71.9777
48.010,76.7677
48.020,75.7376
48.030,69.6549
48.040,73.4925
48.050,66.1711
48.060,69.8812
48.070,72.4608
48.080,73.9343
48.090,65.9932
48.100,65.2732
48.110,70.3093
48.120,65.8256
48.130,64.3455
48.140,64.6332
48.150,73.1378
48.160,69.0012
48.170,66.6679
48.180,68.2788
48.190,74.5880
48.200,74.1583
48.210,75.2697
48.220,67.8651
48.230,73.0072
48.240,72.4362
48.250,72.8145
48.260,65.9426
48.270,73.3410
48.280,68.3629
48.290,67.4337
48.300,64.0623
48.310,66.1570
48.320,70.9753
48.330,68.9912
48.340,70.7754
48.350,74.3357
48.360,76.1800
48.370,69.4382
48.380,65.7956
48.390,69.5387
48.400,74.8920
48.410,67.7367
48.420,75.0517
48.430,75.4899
48.440,68.0530
48.450,74.1419
48.460,75.5962
48.470,65.9821
48.480,74.6298
48.490,67.6136
48.500,78.3161
48.510,73.6051
48.520,69.6382
48.530,69.5793
48.540,75.6289
48.550,78.5417
48.560,80.2140
48.570,70.7312
48.580,75.3911
48.590,81.0161
48.600,72.8975
48.610,71.1682
48.620,78.1849
48.630,69.7412
48.640,81.4338
48.650,71.9633
48.660,78.6663
48.670,73.9421
48.680,75.0362
48.690,75.9645
48.700,80.9024
48.710,82.9379
48.720,74.4953
48.730,82.9044
48.740,83.2396
48.750,73.8260
48.760,79.7694
48.770,78.5909
48.780,73.6126
48.790,73.0207
48.800,84.5277
48.810,78.2544
48.820,76.9254
48.830,79.4111
48.840,76.5060
48.850,84.3269
48.860,78.8595
48.870,81.5980
48.880,85.0490
48.890,76.6256
48.900,80.3632
48.910,81.9001
48.920,85.1168
48.930,76.7600
48.940,78.3240
48.950,74.9365
48.960,85.1993
48.970,85.1697
48.980,78.3319
48.990,79.0145
49.000,75.0982
49.010,74.4674
49.020,78.0832
49.030,77.0602
49.040,78.0663
49.050,77.5732
49.060,82.6043
49.070,77.0010
49.080,81.2184
49.090,76.1236
49.100,75.9797
49.110,84.2259
49.120,76.2446
49.130,82.1724
49.140,81.5835
49.150,82.4669
49.160,77.6665
49.170,71.0797
49.180,75.4285
49.190,75.0158
49.200,80.4241
49.210,81.6376
49.220,80.7400
49.230,72.3009
49.240,70.7175
49.250,79.9165
49.260,80.7245
49.270,75.6457
49.280,80.6475
49.290,75.1471
49.300,70.5033
49.310,75.9530
49.320,77.5278
49.330,77.6742
49.340,77.8118
49.350,74.1717
49.360,67.9185
49.370,67.0474
49.380,68.9162
49.390,67.9707
49.400,72.3595
49.410,71.2854
49.420,76.4864
49.430,66.5808
49.440,76.1221
49.450,75.7204
49.460,71.4523
49.470,72.9699
49.480,77.0663
49.490,64.7574
49.500,71.1236
49.510,74.4576
49.520,72.4245
49.530,70.9687
49.540,73.8336
49.550,68.8345
49.560,71.4666
49.570,69.6232
49.580,65.6753
49.590,65.6623
49.600,71.9174
49.610,66.3657
49.620,65.1164
49.630,72.1940
49.640,71.1474
49.650,74.4182
49.660,71.3787
49.670,72.7419
49.680,66.0525
49.690,74.4394
49.700,75.2832
49.710,68.5944
49.720,72.1487
49.730,64.2306
49.740,68.4495
49.750,69.7112
49.760,65.3666
49.770,75.3072
49.780,74.2039
49.790,65.0559
49.800,76.3117
49.810,73.3102
49.820,76.3093
49.830,68.5872
49.840,65.1587
49.850,70.6568
49.860,72.9251
49.870,67.4956
49.880,69.7049
49.890,70.7918
49.900,66.3186
49.910,72.6993
49.920,73.1056
49.930,73.0721
49.940,70.5369
49.950,74.7853
49.960,73.5238
49.970,79.4933
49.980,71.5821
49.990,73.6781
50.000,77.2441
50.010,73.6562
50.020,77.2943
50.030,77.6624
50.040,80.8614
50.050,71.7480
50.060,74.0531
50.070,73.3337
50.080,74.4898
50.090,77.1477
50.100,81.2788
50.110,78.1309
50.120,74.6615
50.130,75.7824
50.140,74.6085
50.150,74.5060
50.160,71.7108
50.170,80.1990
50.180,77.7884
50.190,73.9596
50.200,76.7939
50.210,74.3162
50.220,78.9748
50.230,77.8088
50.240,84.0561
50.250,75.9978
50.260,76.4701
50.270,82.5669
50.280,76.3477
50.290,77.7593
50.300,73.5052
50.310,75.5344
50.320,79.2497
50.330,83.1542
50.340,83.7893
50.350,78.4801
50.360,82.3680
50.370,76.6494
50.380,74.0211
50.390,82.5313
50.400,80.3516
50.410,85.6561
50.420,82.6160
50.430,82.0881
50.440,76.5940
50.450,84.1124
50.460,74.0498
50.470,76.6404
50.480,76.2103
50.490,74.5006
50.500,82.6591
50.510,74.5674
50.520,76.0972
50.530,77.2231
50.540,80.0753
50.550,73.2362
50.560,76.5800
50.570,73.8110
50.580,83.5766
50.590,74.1352
50.600,81.9136
50.610,74.8364
50.620,70.6979
50.630,77.8028
50.640,79.8590
50.650,71.5804
50.660,70.5317
50.670,78.1113
50.680,80.6308
50.690,71.1181
50.700,74.9793
50.710,78.9476
50.720,76.8562
50.730,73.4417
50.740,76.3624
50.750,79.5655
50.760,71.9246
50.770,72.1693
50.780,75.7990
50.790,69.3825
50.800,74.0615
50.810,74.7988
50.820,71.6973
50.830,73.9053
50.840,66.7260
50.850,70.5551
50.860,77.8547
50.870,76.6648
50.880,72.6107
50.890,74.6845
50.900,77.3590
50.910,74.7310
50.920,75.9815
50.930,69.4652
50.940,76.6272
50.950,74.9363
50.960,72.8478
50.970,72.3431
50.980,69.1423
50.990,71.6496
51.000,75.4344
51.010,65.9886
51.020,75.1958
51.030,67.0233
51.040,65.9635
51.050,68.2863
51.060,74.2126
51.070,64.7059
51.080,66.5919
51.090,65.8671
51.100,64.7736
51.110,64.8544
51.120,67.1450
51.130,73.0111
51.140,66.5469
51.150,67.2673
51.160,69.7392
51.170,74.2689
51.180,67.4976
51.190,70.0044
51.200,71.9366
51.210,73.2356
51.220,73.5436
51.230,67.8367
51.240,65.9699
51.250,70.5217
51.260,75.3968
51.270,75.9676
51.280,70.2871
51.290,71.7989
51.300,73.4968
51.310,74.0278
51.320,78.1636
51.330,69.6487
51.340,68.2763
51.350,77.3590
51.360,76.1828
51.370,67.6932
51.380,78.2972
51.390,71.3296
51.400,69.0531
51.410,70.9303
51.420,70.0332
51.430,70.5751
51.440,75.0462
51.450,76.6502
51.460,70.4916
51.470,70.2620
51.480,78.4085
51.490,80.6438
51.500,71.4787
51.510,78.7742
51.520,78.1754
51.530,78.8653
51.540,71.9974
51.550,74.5592
51.560,81.2921
51.570,82.9837
51.580,78.2231
51.590,74.0107
51.600,76.0088
51.610,79.1839
51.620,75.5379
51.630,74.3564
51.640,81.0227
51.650,82.8161
51.660,73.4208
51.670,76.3738
51.680,77.7859
51.690,81.1702
51.700,83.9893
51.710,81.2486
51.720,75.9317
51.730,75.7040
51.740,77.0812
51.750,78.7589
51.760,83.3311
51.770,76.9375
51.780,82.0912
51.790,86.4033
51.800,79.2179
51.810,79.8451
51.820,79.7399
51.830,74.6589
51.840,75.4641
51.850,86.0057
51.860,81.0461
51.870,75.1837
51.880,81.7460
51.890,76.8194
51.900,76.4636
51.910,76.5753
51.920,76.9017
51.930,79.6102
51.940,77.9106
51.950,84.5054
51.960,83.5678
51.970,74.7709
51.980,77.6841
51.990,81.9145
52.000,76.0586
52.010,74.3586
52.020,81.5702
52.030,73.0417
52.040,80.5941
52.050,81.2350
52.060,78.2601
52.070,81.4480
52.080,80.4409
52.090,72.4104
52.100,80.5244
52.110,80.4321
52.120,81.2954
52.130,81.2730
52.140,74.9312
52.150,76.5881
52.160,75.6957
52.170,70.8671
52.180,74.8285
52.190,70.5542
52.200,78.5784
52.210,72.7537
52.220,70.8744
52.230,67.4936
52.240,69.3432
52.250,67.8883
52.260,78.4736
52.270,73.4907
52.280,70.4447
52.290,73.8676
52.300,76.8288
52.310,68.0313
52.320,73.6847
52.330,69.9117
52.340,65.0840
52.350,75.8037
52.360,74.1999
52.370,70.6106
52.380,77.0185
52.390,70.6864
52.400,74.4709
52.410,72.8708
52.420,69.3730
52.430,75.0481
52.440,76.4255
52.450,75.4539
52.460,65.7157
52.470,76.3309
52.480,71.3409
52.490,71.9425
52.500,66.4538
52.510,75.9540
52.520,72.7023
52.530,69.7723
52.540,71.7899
52.550,67.1823
52.560,69.5566
52.570,70.4972
52.580,74.9680
52.590,64.7036
52.600,72.9651
52.610,67.3681
52.620,72.1172
52.630,73.0740
52.640,71.4130
52.650,67.9885
52.660,69.4704
52.670,73.3396
52.680,72.3092
52.690,66.1164
52.700,66.5669
52.710,70.9734
52.720,78.0627
52.730,69.4589
52.740,68.6248
52.750,76.5664
52.760,68.5406
52.770,68.2654
52.780,74.7828
52.790,74.9882
52.800,71.6807
52.810,75.1884
52.820,77.5741
52.830,77.0963
52.840,79.1955
52.850,74.4079
52.860,71.3537
52.870,70.0892
52.880,74.6966
52.890,73.7912
52.900,80.8480
52.910,80.7956
52.920,82.0812
52.930,82.6056
52.940,78.7413
52.950,83.6579
52.960,78.5324
52.970,78.2252
52.980,80.1608
52.990,82.9886
53.000,74.1595
53.010,82.8703
53.020,73.2165
53.030,78.3127
53.040,81.9241
53.050,76.0074
53.060,78.7995
53.070,78.9188
53.080,83.0358
53.090,77.2592
53.100,75.5609
53.110,76.3959
53.120,80.0370
53.130,82.5204
53.140,83.5272
53.150,80.4446
53.160,78.5341
53.170,86.0502
53.180,82.7886
53.190,86.0036
53.200,74.7751
53.210,75.9740
53.220,77.1216
53.230,77.8797
53.240,82.6296
53.250,85.4439
53.260,82.6211
53.270,84.3625
53.280,79.7312
53.290,77.9293
53.300,82.6080
53.310,75.6088
53.320,79.0528
53.330,82.5087
53.340,80.5159
53.350,84.2698
53.360,77.0053
53.370,73.2799
53.380,85.3808
53.390,78.6280
53.400,73.1960
53.410,72.6143
53.420,79.9985
53.430,76.2472
53.440,76.0786
53.450,74.0817
53.460,73.4168
53.470,81.4711
53.480,81.2583
53.490,82.0180
53.500,77.0219
53.510,77.0989
53.520,76.1584
53.530,80.7278
53.540,75.8497
53.550,80.5742
53.560,71.1305
53.570,80.1822
53.580,78.8105
53.590,72.2718
53.600,76.0354
53.610,69.3185
53.620,75.3759
53.630,74.3687
53.640,79.8461
53.650,71.8590
53.660,69.0061
53.670,79.3963
53.680,71.3760
53.690,70.6090
53.700,76.7655
53.710,68.4467
53.720,78.4230
53.730,72.2583
53.740,75.6630
53.750,71.5588
53.760,72.2125
53.770,68.0907
53.780,68.3061
53.790,74.8597
53.800,66.7520
53.810,70.7732
53.820,76.7621
53.830,77.0351
53.840,70.0228
53.850,68.7829
53.860,71.2582
53.870,74.5078
53.880,74.0908
53.890,69.2990
53.900,68.1748
53.910,74.6559
53.920,75.1250
53.930,72.5404
53.940,73.1929
53.950,73.5493
53.960,75.8586
53.970,69.2240
53.980,74.7010
53.990,76.1646
54.000,70.0512
54.010,74.8028
54.020,67.7179
54.030,69.7116
54.040,70.3758
54.050,69.0453
54.060,72.9799
54.070,76.6333
54.080,71.2221
54.090,68.1645
54.100,73.7115
54.110,76.1001
54.120,69.7661
54.130,73.0219
54.140,73.7521
54.150,71.7089
54.160,73.4347
54.170,71.7023
54.180,73.0806
54.190,75.0713
54.200,69.4423
54.210,76.8963
54.220,70.9515
54.230,78.4539
54.240,71.4638
54.250,75.7137
54.260,74.1654
54.270,69.4035
54.280,77.6533
54.290,75.4911
54.300,74.6451
54.310,79.7091
54.320,77.8812
54.330,71.5529
54.340,80.3102
54.350,76.8354
54.360,72.0350
54.370,75.7969
54.380,75.7537
54.390,75.4218
54.400,79.7773
54.410,81.7050
54.420,76.5961
54.430,80.7160
54.440,80.8704
54.450,75.3255
54.460,80.5978
54.470,83.0991
54.480,77.1389
54.490,79.4575
54.500,82.3219
54.510,75.7194
54.520,85.6258
54.530,81.3817
54.540,80.7136
54.550,83.9112
54.560,80.2611
54.570,77.0213
54.580,75.8578
54.590,81.7603
54.600,85.6898
54.610,83.6613
54.620,80.5043
54.630,75.9021
54.640,78.9322
54.650,74.6584
54.660,86.6329
54.670,83.6827
54.680,85.5117
54.690,86.7246
54.700,84.9508
54.710,86.7501
54.720,78.2523
54.730,83.6219
54.740,81.8649
54.750,77.4690
54.760,76.7958
54.770,80.3588
54.780,80.6616
54.790,80.1075
54.800,74.3059
54.810,84.6452
54.820,78.2695
54.830,78.7069
54.840,82.6578
54.850,74.6206
54.860,78.5674
54.870,84.1056
54.880,78.0759
54.890,73.3745
54.900,79.2050
54.910,76.2853
54.920,73.3140
54.930,81.0100
54.940,74.4406
54.950,81.6791
54.960,80.8925
54.970,72.3110
54.980,71.8973
54.990,78.2510
55.000,72.3230
55.010,73.4207
55.020,79.7508
55.030,77.3070
55.040,73.8304
55.050,69.5104
55.060,79.1762
55.070,71.7564
55.080,74.6033
55.090,71.4561
55.100,77.3174
55.110,72.1616
55.120,69.0784
55.130,74.5122
55.140,68.5845
55.150,70.7331
55.160,71.6790
55.170,68.4484
55.180,73.0567
55.190,69.6734
55.200,73.7893
55.210,72.4713
55.220,69.4862
55.230,75.7585
55.240,76.1954
55.250,74.5483
55.260,69.7120
55.270,70.1938
55.280,73.9447
55.290,67.1195
55.300,65.5313
55.310,72.2913
55.320,70.0789
55.330,68.7341
55.340,74.9992
55.350,69.2035
55.360,70.3157
55.370,74.8729
55.380,72.9457
55.390,71.0808
55.400,69.5994
55.410,69.1285
55.420,65.1016
55.430,73.7609
55.440,65.0536
55.450,71.8589
55.460,77.3922
55.470,75.4966
55.480,73.5609
55.490,69.4288
55.500,71.1026
55.510,69.8322
55.520,67.8310
55.530,66.7832
55.540,69.6074
55.550,71.1439
55.560,68.3426
55.570,71.2334
55.580,74.0253
55.590,76.9934
55.600,68.9837
55.610,69.7478
55.620,72.5250
55.630,76.6110
55.640,77.4093
55.650,71.8679
55.660,69.9563
55.670,74.4300
55.680,70.3579
55.690,69.7851
55.700,73.5582
55.710,72.6352
55.720,80.1165
55.730,81.4381
55.740,80.1387
55.750,75.5560
55.760,83.1968
55.770,80.6494
55.780,75.5314
55.790,76.3026
55.800,82.4149
55.810,74.5882
55.820,76.3881
55.830,82.6586
55.840,73.8794
55.850,81.6812
55.860,76.0682
55.870,85.0951
55.880,83.0141
55.890,79.8827
55.900,75.0652
55.910,82.8667
55.920,75.2275
55.930,73.9223
55.940,81.6219
55.950,79.0866
55.960,76.2396
55.970,80.6768
55.980,78.4744
55.990,83.7984
56.000,74.7144
56.010,81.9961
56.020,78.0823
56.030,80.9117
56.040,87.2782
56.050,83.5462
56.060,84.4763
56.070,83.4018
56.080,81.0934
56.090,76.5221
56.100,87.1465
56.110,87.0124
56.120,75.8244
56.130,84.5565
56.140,82.7840
56.150,82.4963
56.160,79.8698
56.170,80.7006
56.180,79.2252
56.190,86.0416
56.200,78.0999
56.210,76.6018
56.220,75.9858
56.230,85.6675
56.240,75.9342
56.250,85.0782
56.260,76.0059
56.270,80.1920
56.280,78.2084
56.290,73.3680
56.300,76.8766
56.310,72.4869
56.320,84.2432
56.330,72.1395
56.340,84.1875
56.350,83.5885
56.360,71.7586
56.370,77.9846
56.380,78.2685
56.390,76.5909
56.400,80.3819
56.410,74.8780
56.420,70.4875
56.430,71.6194
56.440,69.6278
56.450,78.0061
56.460,71.1276
56.470,73.2329
56.480,70.3277
56.490,74.2017
56.500,71.1115
56.510,71.0183
56.520,79.0781
56.530,73.6054
56.540,77.6799
56.550,68.5388
56.560,72.0398
56.570,71.6301
56.580,70.3092
56.590,76.8486
56.600,67.2359
56.610,66.8854
56.620,75.6344
56.630,69.4639
56.640,75.1618
56.650,76.7290
56.660,66.5123
56.670,72.7434
56.680,72.0233
56.690,71.7320
56.700,71.4853
56.710,70.0368
56.720,73.1645
56.730,67.5878
56.740,69.8293
56.750,70.2405
56.760,69.5210
56.770,67.7155
56.780,71.2839
56.790,68.1849
56.800,73.4282
56.810,71.5222
56.820,70.1424
56.830,72.9753
56.840,69.5343
56.850,69.9101
56.860,65.6851
56.870,76.9143
56.880,73.4961
56.890,72.5916
56.900,77.7799
56.910,76.4564
56.920,70.8162
56.930,66.1867
56.940,70.9118
56.950,77.5829
56.960,70.6333
56.970,75.2221
56.980,74.3282
56.990,79.3102
57.000,67.3315
57.010,76.4322
57.020,71.4693
57.030,68.9360
57.040,76.4967
57.050,68.5622
57.060,70.3078
57.070,76.5221
57.080,72.9757
57.090,70.0539
57.100,77.5211
57.110,70.5980
57.120,76.6180
57.130,69.9769
57.140,80.4624
57.150,76.1748
57.160,74.0966
57.170,73.0995
57.180,77.2710
57.190,76.3520
57.200,82.7881
57.210,73.8067
57.220,78.4004
57.230,76.6521
57.240,81.9409
57.250,72.7492
57.260,73.0194
57.270,83.4613
57.280,78.4743
57.290,78.2840
57.300,78.2690
57.310,79.9790
57.320,84.4239
57.330,76.9279
57.340,76.4549
57.350,79.0239
57.360,84.1226
57.370,77.9705
57.380,82.8930
57.390,75.8823
57.400,76.3706
57.410,84.4634
57.420,76.3402
57.430,86.5854
57.440,83.0415
57.450,75.4419
57.460,76.3623
57.470,84.0427
57.480,81.4692
57.490,76.6170
57.500,79.5767
57.510,79.0530
57.520,78.2899
57.530,81.5453
57.540,78.9435
57.550,84.7545
57.560,86.7119
57.570,86.3618
57.580,84.3776
57.590,84.2421
57.600,82.1182
57.610,80.6049
57.620,79.6490
57.630,82.9421
57.640,79.0100
57.650,75.9892
57.660,85.0411
57.670,76.8652
57.680,83.5021
57.690,82.7072
57.700,78.0210
57.710,78.0863
57.720,80.2996
57.730,81.7627
57.740,82.5016
57.750,77.0257
57.760,82.1356
57.770,73.9630
57.780,83.2712
57.790,76.3303
57.800,80.2647
57.810,72.7634
57.820,75.4355
57.830,79.4136
57.840,81.8839
57.850,72.0288
57.860,79.1003
57.870,74.4902
57.880,71.3860
57.890,73.9502
57.900,72.8111
57.910,81.1438
57.920,74.9702
57.930,69.8853
57.940,71.4491
57.950,75.0972
57.960,69.6499
57.970,79.8444
57.980,67.7055
57.990,74.8156
58.000,79.3090
58.010,74.0405
58.020,79.3721
58.030,69.7917
58.040,75.1839
58.050,70.6466
58.060,75.5997
58.070,76.5694
58.080,72.7620
58.090,75.2229
58.100,72.9451
58.110,76.2545
58.120,67.8099
58.130,73.6134
58.140,68.2921
58.150,73.2065
58.160,68.0336
58.170,73.7658
58.180,73.8827
58.190,73.7320
58.200,76.7747
58.210,65.5289
58.220,69.3509
58.230,74.0787
58.240,66.2696
58.250,66.3360
58.260,75.7678
58.270,68.4499
58.280,70.7045
58.290,71.2629
58.300,72.9658
58.310,73.2509
58.320,72.6623
58.330,75.7694
58.340,71.2552
58.350,68.6208
58.360,78.7036
58.370,77.4999
58.380,74.4550
58.390,76.3146
58.400,73.4695
58.410,73.5704
58.420,72.8619
58.430,70.2302
58.440,72.3897
58.450,73.1001
58.460,80.5767
58.470,75.1113
58.480,78.5039
58.490,71.3375
58.500,74.7262
58.510,79.4393
58.520,74.8309
58.530,72.5401
58.540,72.3721
58.550,79.4094
58.560,71.8970
58.570,70.6792
58.580,71.4734
58.590,72.9833
58.600,76.6198
58.610,76.8980
58.620,83.5873
58.630,77.5305
58.640,76.6943
58.650,73.3086
58.660,75.2781
58.670,78.3694
58.680,74.7638
58.690,82.4303
58.700,74.3475
58.710,78.3663
58.720,74.4377
58.730,73.8995
58.740,83.0678
58.750,74.9503
58.760,79.8204
58.770,78.0245
58.780,83.6954
58.790,80.6903
58.800,80.5320
58.810,75.3594
58.820,82.8669
58.830,85.1097
58.840,77.8260
58.850,87.1389
58.860,85.3899
58.870,82.2639
58.880,76.4908
58.890,81.6011
58.900,83.7493
58.910,84.8581
58.920,80.8219
58.930,76.5309
58.940,79.0703
58.950,77.4997
58.960,86.3016
58.970,80.6173
58.980,75.8059
58.990,86.6755
59.000,79.3430
59.010,75.9156
59.020,87.1753
59.030,75.9224
59.040,86.5437
59.050,84.1982
59.060,86.7046
59.070,79.6810
59.080,81.0348
59.090,81.1565
59.100,85.9402
59.110,74.9396
59.120,84.2413
59.130,81.0938
59.140,77.5956
59.150,81.8868
59.160,80.0690
59.170,80.4658
59.180,80.6223
59.190,80.7861
59.200,81.2425
59.210,74.5263
59.220,73.0046
59.230,72.5491
59.240,83.4247
59.250,72.7509
59.260,79.8428
59.270,81.0938
59.280,82.5102
59.290,80.0730
59.300,80.4521
59.310,81.0933
59.320,75.5418
59.330,78.5486
59.340,80.0312
59.350,77.6712
59.360,78.1071
59.370,73.8356
59.380,74.3252
59.390,77.5741
59.400,73.5035
59.410,69.3411
59.420,76.6042
59.430,78.0433
59.440,72.1021
59.450,77.8875
59.460,72.7834
59.470,74.8899
59.480,77.7611
59.490,79.1655
59.500,77.3976
59.510,75.3584
59.520,75.5554
59.530,67.0522
59.540,75.6803
59.550,72.2382
59.560,71.7351
59.570,75.3629
59.580,70.1431
59.590,70.8911
59.600,68.2273
59.610,77.8945
59.620,70.1524
59.630,72.9312
59.640,69.8312
59.650,75.6362
59.660,73.8447
59.670,75.3013
59.680,71.8425
59.690,71.4828
59.700,74.3708
59.710,77.7470
59.720,71.8229
59.730,67.1611
59.740,72.9734
59.750,69.8615
59.760,78.2118
59.770,71.3062
59.780,67.6176
59.790,68.9821
59.800,72.9445
59.810,70.1987
59.820,69.4919
59.830,70.0292
59.840,77.6847
59.850,73.5826
59.860,73.4861
59.870,71.6576
59.880,78.9548
59.890,78.4886
59.900,70.4469
59.910,77.7976
59.920,76.6949
59.930,80.3579
59.940,76.5906
59.950,69.9949
59.960,72.0064
59.970,71.7113
59.980,77.9914
59.990,71.6561
