t_s,envelope_uV
0.000,62.5865
0.010,70.5417
0.020,66.0441
0.030,63.0193
0.040,67.6408
0.050,66.9507
0.060,61.1417
0.070,63.2323
0.080,68.4988
0.090,61.7811
0.100,73.4994
0.110,68.1255
0.120,64.5595
0.130,70.4906
0.140,61.5947
0.150,68.8443
0.160,62.4493
0.170,70.9688
0.180,74.2648
0.190,75.2683
0.200,72.2159
0.210,74.8848
0.220,73.0593
0.230,67.5772
0.240,75.6859
0.250,65.7987
0.260,75.4394
0.270,66.0168
0.280,67.0554
0.290,70.9900
0.300,65.0448
0.310,73.2386
0.320,68.0829
0.330,76.3821
0.340,64.7552
0.350,66.9445
0.360,70.6051
0.370,68.4640
0.380,72.4848
0.390,72.9980
0.400,66.8544
0.410,71.8401
0.420,63.8873
0.430,72.0522
0.440,70.3792
0.450,72.2462
0.460,63.3698
0.470,67.0084
0.480,66.0418
0.490,69.9369
0.500,67.7636
0.510,74.7037
0.520,64.2978
0.530,70.2081
0.540,67.9260
0.550,62.1954
0.560,70.3393
0.570,63.0602
0.580,72.5429
0.590,65.3857
0.600,62.3653
0.610,64.1166
0.620,72.5158
0.630,72.1319
0.640,65.0647
0.650,65.3477
0.660,60.9187
0.670,65.9922
0.680,66.8828
0.690,68.4065
0.700,65.4634
0.710,59.4403
0.720,69.9298
0.730,67.5881
0.740,61.5014
0.750,68.3015
0.760,68.4186
0.770,57.4209
0.780,67.7017
0.790,69.8105
0.800,60.7541
0.810,64.8891
0.820,59.1577
0.830,60.3852
0.840,60.7343
0.850,68.4072
0.860,62.4980
0.870,60.7287
0.880,60.0146
0.890,67.6902
0.900,66.2318
0.910,64.7032
0.920,56.0307
0.930,59.1120
0.940,61.2492
0.950,57.0663
0.960,66.1814
0.970,54.1330
0.980,59.9966
0.990,55.1846
1.000,55.5582
1.010,53.9193
1.020,61.5782
1.030,58.3684
1.040,62.9324
1.050,65.4696
1.060,58.2507
1.070,59.5611
1.080,62.8489
1.090,54.8379
1.100,58.8658
1.110,59.1133
1.120,65.1036
1.130,61.7914
1.140,59.9710
1.150,60.5188
1.160,57.1812
1.170,63.9770
1.180,57.5572
1.190,54.6203
1.200,61.6126
1.210,61.8191
1.220,64.1072
1.230,65.1151
1.240,58.7416
1.250,62.5767
1.260,63.8602
1.270,61.5295
1.280,61.1393
1.290,58.2532
1.300,63.4919
1.310,65.6930
1.320,57.7326
1.330,63.6835
1.340,68.6559
1.350,57.6942
1.360,59.1604
1.370,68.5401
1.380,58.3435
1.390,64.3002
1.400,67.6999
1.410,63.5860
1.420,69.3439
1.430,68.8022
1.440,65.0640
1.450,69.1262
1.460,60.2799
1.470,60.1869
1.480,60.7015
1.490,70.6038
1.500,68.9292
1.510,66.6801
1.520,61.2087
1.530,63.8663
1.540,68.0416
1.550,74.0938
1.560,66.5838
1.570,65.3005
1.580,74.6557
1.590,66.9369
1.600,72.0603
1.610,73.0222
1.620,70.2501
1.630,74.2819
1.640,66.3443
1.650,75.1129
1.660,75.5119
1.670,73.5224
1.680,70.7167
1.690,73.5306
1.700,63.7100
1.710,65.5088
1.720,73.9305
1.730,72.1814
1.740,74.9053
1.750,75.6027
1.760,74.3272
1.770,74.0887
1.780,69.0774
1.790,76.3563
1.800,67.3590
1.810,67.6315
1.820,67.4764
1.830,76.8625
1.840,71.0407
1.850,76.6951
1.860,72.8215
1.870,66.2986
1.880,65.4780
1.890,66.1251
1.900,70.1048
1.910,64.6702
1.920,75.0685
1.930,67.5238
1.940,75.1240
1.950,64.6645
1.960,64.5762
1.970,66.7224
1.980,73.1645
1.990,66.2192
2.000,73.1468
2.010,70.4664
2.020,74.0899
2.030,63.6968
2.040,68.9933
2.050,61.9838
2.060,68.5369
2.070,68.2350
2.080,63.3865
2.090,68.0008
2.100,71.7752
2.110,60.6252
2.120,61.2958
2.130,68.1382
2.140,71.1027
2.150,70.8297
2.160,59.3578
2.170,70.3053
2.180,64.9491
2.190,61.3129
2.200,63.1737
2.210,58.2334
2.220,68.5401
2.230,67.4512
2.240,57.8770
2.250,60.5977
2.260,66.7474
2.270,56.3821
2.280,59.1450
2.290,61.7478
2.300,60.2876
2.310,63.0909
2.320,62.0240
2.330,66.5133
2.340,67.4056
2.350,61.2698
2.360,60.2576
2.370,58.5026
2.380,64.5284
2.390,56.8942
2.400,59.5605
2.410,65.1973
2.420,55.9939
2.430,65.7375
2.440,56.9876
2.450,63.2484
2.460,63.8309
2.470,57.4776
2.480,64.0342
2.490,62.9502
2.500,55.4481
2.510,64.1327
2.520,54.9404
2.530,64.5948
2.540,65.6252
2.550,66.8184
2.560,62.6881
2.570,66.7962
2.580,63.3007
2.590,57.9582
2.600,57.8241
2.610,58.3322
2.620,62.1027
2.630,59.5321
2.640,57.8076
2.650,64.1731
2.660,56.7442
2.670,61.1670
2.680,64.5340
2.690,62.4115
2.700,57.9852
2.710,56.7809
2.720,58.8625
2.730,67.9282
2.740,57.5574
2.750,57.8749
2.760,62.0814
2.770,64.8923
2.780,67.4237
2.790,65.8148
2.800,61.3909
2.810,63.5790
2.820,65.9118
2.830,62.8900
2.840,62.2078
2.850,67.2624
2.860,67.4403
2.870,68.6608
2.880,67.7320
2.890,60.0298
2.900,63.4481
2.910,70.8202
2.920,70.7891
2.930,68.9376
2.940,71.2466
2.950,64.2956
2.960,62.9770
2.970,63.0525
2.980,71.2296
2.990,69.1515
3.000,64.3538
3.010,62.5596
3.020,64.8684
3.030,62.7441
3.040,70.9025
3.050,73.1965
3.060,70.5370
3.070,74.8981
3.080,71.0914
3.090,75.8690
3.100,76.3249
3.110,66.6350
3.120,69.6366
3.130,73.0741
3.140,71.8003
3.150,71.7827
3.160,69.6520
3.170,65.6400
3.180,74.8120
3.190,71.6074
3.200,71.4319
3.210,76.4601
3.220,66.6745
3.230,69.4288
3.240,65.3462
3.250,65.5367
3.260,67.5843
3.270,64.7493
3.280,65.8175
3.290,66.0342
3.300,71.3373
3.310,75.2235
3.320,70.0906
3.330,70.5775
3.340,72.8716
3.350,67.2121
3.360,69.7935
3.370,71.5620
3.380,64.4359
3.390,75.6419
3.400,65.3039
3.410,70.7296
3.420,70.6589
3.430,69.2213
3.440,64.4446
3.450,62.2057
3.460,70.2950
3.470,69.2259
3.480,67.9008
3.490,64.6399
3.500,68.0011
3.510,61.9108
3.520,66.8136
3.530,66.2830
3.540,62.8150
3.550,70.3164
3.560,64.1360
3.570,61.4906
3.580,61.4187
3.590,69.9808
3.600,66.3917
3.610,61.3515
3.620,70.8567
3.630,64.1352
3.640,61.9426
3.650,70.3544
3.660,68.0628
3.670,67.2179
3.680,69.6652
3.690,65.5953
3.700,67.1415
3.710,67.6461
3.720,56.7158
3.730,63.2218
3.740,57.2644
3.750,60.0525
3.760,57.2406
3.770,67.3687
3.780,64.4926
3.790,65.8698
3.800,58.2718
3.810,66.8131
3.820,57.2614
3.830,63.2750
3.840,58.3923
3.850,63.5045
3.860,54.7651
3.870,66.8801
3.880,56.8966
3.890,58.7303
3.900,54.4538
3.910,62.0262
3.920,60.5028
3.930,55.9382
3.940,54.6726
3.950,56.8402
3.960,54.0854
3.970,59.9398
3.980,59.3509
3.990,58.4634
4.000,66.7052
4.010,59.9813
4.020,66.0353
4.030,58.7655
4.040,63.5414
4.050,65.5917
4.060,59.7920
4.070,55.1541
4.080,60.5650
4.090,65.5872
4.100,58.5458
4.110,66.6045
4.120,61.0520
4.130,63.3372
4.140,64.9136
4.150,68.8231
4.160,64.8322
4.170,56.9612
4.180,68.1942
4.190,61.2277
4.200,62.1408
4.210,61.9331
4.220,64.0197
4.230,61.3829
4.240,60.1118
4.250,64.7305
4.260,62.5899
4.270,63.9100
4.280,63.5480
4.290,70.5682
4.300,65.3584
4.310,66.4796
4.320,64.3108
4.330,64.7373
4.340,69.4707
4.350,62.5179
4.360,73.5800
4.370,72.7693
4.380,64.7038
4.390,73.6253
4.400,71.5180
4.410,68.4020
4.420,67.3413
4.430,74.9521
4.440,70.0198
4.450,67.7826
4.460,72.6678
4.470,72.3229
4.480,68.3856
4.490,67.0661
4.500,75.7170
4.510,65.4346
4.520,68.2311
4.530,72.4782
4.540,72.9839
4.550,72.5946
4.560,75.1764
4.570,76.7012
4.580,73.6438
4.590,75.1653
4.600,70.2398
4.610,73.3883
4.620,75.9339
4.630,73.6536
4.640,72.6348
4.650,73.6286
4.660,67.6361
4.670,65.6931
4.680,75.5630
4.690,69.4537
4.700,64.9265
4.710,66.6671
4.720,64.5725
4.730,65.7203
4.740,65.5887
4.750,75.0871
4.760,75.7931
4.770,72.2304
4.780,70.3076
4.790,70.6007
4.800,71.1226
4.810,68.6634
4.820,70.4849
4.830,65.8974
4.840,69.3548
4.850,74.1879
4.860,70.0217
4.870,66.7992
4.880,64.1679
4.890,69.2930
4.900,63.6384
4.910,68.3746
4.920,72.8536
4.930,73.2194
4.940,69.0917
4.950,66.7327
4.960,63.7997
4.970,68.0338
4.980,72.6684
4.990,61.4387
5.000,71.2859
5.010,66.9687
5.020,62.7828
5.030,59.8326
5.040,62.0779
5.050,65.2334
5.060,58.9897
5.070,64.6803
5.080,64.0032
5.090,69.6774
5.100,63.6948
5.110,57.9664
5.120,57.0879
5.130,64.2269
5.140,59.0745
5.150,58.0504
5.160,59.5524
5.170,66.8733
5.180,67.1976
5.190,64.5271
5.200,58.7539
5.210,62.4470
5.220,61.2062
5.230,65.3170
5.240,67.1291
5.250,56.7005
5.260,57.9444
5.270,63.9698
5.280,56.9870
5.290,58.4470
5.300,59.7446
5.310,57.8499
5.320,58.8364
5.330,61.1274
5.340,54.4025
5.350,66.6702
5.360,60.6822
5.370,56.8924
5.380,65.0970
5.390,61.7034
5.400,54.3615
5.410,63.6068
5.420,63.9110
5.430,66.0819
5.440,63.6245
5.450,62.2628
5.460,63.5010
5.470,60.9424
5.480,62.2786
5.490,62.5098
5.500,66.2932
5.510,59.9403
5.520,65.7208
5.530,56.4702
5.540,67.4328
5.550,56.3517
5.560,56.6178
5.570,68.6437
5.580,60.3445
5.590,59.3284
5.600,66.2263
5.610,67.2943
5.620,67.2475
5.630,60.9104
5.640,60.1362
5.650,64.9387
5.660,63.6303
5.670,68.3927
5.680,61.8126
5.690,61.9305
5.700,64.1404
5.710,64.0509
5.720,67.9824
5.730,67.2063
5.740,69.9822
5.750,65.0283
5.760,63.9461
5.770,63.2749
5.780,62.0306
5.790,70.4857
5.800,66.0532
5.810,67.1410
5.820,69.1870
5.830,66.0086
5.840,69.4784
5.850,67.1582
5.860,67.5996
5.870,71.3312
5.880,64.6631
5.890,66.3129
5.900,74.7615
5.910,66.5711
5.920,64.7134
5.930,67.1413
5.940,64.2311
5.950,73.1422
5.960,64.5811
5.970,70.3811
5.980,68.7997
5.990,74.9785
6.000,76.1054
6.010,68.6686
6.020,69.7443
6.030,74.6860
6.040,75.3633
6.050,69.2247
6.060,68.9319
6.070,70.2551
6.080,69.7270
6.090,68.0548
6.100,76.5508
6.110,68.7132
6.120,67.1022
6.130,69.2461
6.140,64.6050
6.150,75.9687
6.160,68.6709
6.170,75.9533
6.180,74.8341
6.190,75.2606
6.200,69.2311
6.210,69.5337
6.220,69.0249
6.230,75.6522
6.240,65.1639
6.250,74.7474
6.260,71.4059
6.270,72.7260
6.280,74.3248
6.290,65.4965
6.300,73.8438
6.310,67.4037
6.320,63.2615
6.330,73.3369
6.340,71.7856
6.350,73.7696
6.360,65.1984
6.370,69.9097
6.380,63.5240
6.390,64.8023
6.400,68.7647
6.410,65.7246
6.420,62.0694
6.430,63.7811
6.440,66.1441
6.450,71.9621
6.460,71.2035
6.470,70.1614
6.480,62.1656
6.490,66.7113
6.500,69.0871
6.510,60.0452
6.520,63.9005
6.530,57.8961
6.540,59.1775
6.550,65.3090
6.560,65.2018
6.570,58.7744
6.580,63.6818
6.590,67.1620
6.600,65.7707
6.610,57.0647
6.620,65.9103
6.630,59.8503
6.640,62.4519
6.650,68.3335
6.660,64.4241
6.670,67.9613
6.680,55.6526
6.690,59.6367
6.700,57.5751
6.710,57.1248
6.720,61.6243
6.730,67.0158
6.740,57.9127
6.750,63.7032
6.760,55.9917
6.770,59.9992
6.780,56.9785
6.790,54.5766
6.800,56.2978
6.810,54.7686
6.820,54.8876
6.830,65.5814
6.840,57.9648
6.850,61.6623
6.860,59.2091
6.870,57.2251
6.880,62.6561
6.890,63.4382
6.900,57.4933
6.910,56.9802
6.920,57.4880
6.930,62.3414
6.940,64.2914
6.950,56.0306
6.960,63.5545
6.970,56.9842
6.980,69.0196
6.990,64.9737
7.000,60.3541
7.010,61.1053
7.020,66.8655
7.030,62.3769
7.040,64.9260
7.050,59.9756
7.060,69.8156
7.070,68.4151
7.080,69.7578
7.090,70.6979
7.100,63.0166
7.110,63.4386
7.120,61.1353
7.130,67.4542
7.140,66.6679
7.150,71.1084
7.160,71.3433
7.170,67.1212
7.180,61.8318
7.190,62.9537
7.200,61.9967
7.210,63.3014
7.220,64.9742
7.230,72.1162
7.240,63.4362
7.250,66.0036
7.260,73.8846
7.270,66.9424
7.280,65.6921
7.290,67.1690
7.300,73.9727
7.310,65.2572
7.320,71.6777
7.330,64.4407
7.340,67.2650
7.350,66.4633
7.360,69.5143
7.370,75.7934
7.380,71.5603
7.390,64.5873
7.400,68.8538
7.410,76.9381
7.420,65.2676
7.430,71.0652
7.440,76.8152
7.450,73.4631
7.460,75.6766
7.470,71.9047
7.480,65.7025
7.490,75.6944
7.500,67.4792
7.510,71.1174
7.520,77.2644
7.530,75.8105
7.540,76.5717
7.550,68.1725
7.560,73.9441
7.570,74.3614
7.580,75.4821
7.590,66.4075
7.600,70.3056
7.610,67.7131
7.620,74.1310
7.630,74.1904
7.640,74.0253
7.650,74.2577
7.660,64.2099
7.670,75.1043
7.680,67.2637
7.690,69.3983
7.700,69.8791
7.710,71.4050
7.720,73.2326
7.730,70.0081
7.740,73.3453
7.750,75.0812
7.760,62.6036
7.770,67.6329
7.780,71.2289
7.790,62.1256
7.800,73.0362
7.810,65.5138
7.820,63.8662
7.830,69.4957
7.840,63.6260
7.850,69.0832
7.860,66.0188
7.870,70.2346
7.880,60.0494
7.890,59.9180
7.900,65.6125
7.910,68.6338
7.920,64.8068
7.930,62.5016
7.940,62.7164
7.950,61.5578
7.960,58.6490
7.970,59.5046
7.980,68.5139
7.990,67.1032
8.000,65.0701
8.010,60.4391
8.020,65.4058
8.030,64.5701
8.040,66.0557
8.050,63.9497
8.060,63.5358
8.070,64.8203
8.080,57.2037
8.090,61.8244
8.100,56.3672
8.110,59.8408
8.120,62.1020
8.130,55.1159
8.140,61.0151
8.150,61.2708
8.160,67.5308
8.170,60.4337
8.180,61.5633
8.190,62.1778
8.200,65.1398
8.210,55.2260
8.220,63.9265
8.230,65.4926
8.240,67.1609
8.250,63.9663
8.260,61.8644
8.270,64.0280
8.280,57.3008
8.290,56.6500
8.300,67.4100
8.310,60.0689
8.320,66.8966
8.330,59.9323
8.340,56.1322
8.350,67.7379
8.360,58.3210
8.370,61.0071
8.380,60.3112
8.390,68.1709
8.400,67.0155
8.410,58.4452
8.420,62.7485
8.430,66.3567
8.440,62.6524
8.450,64.9331
8.460,60.6326
8.470,67.3480
8.480,66.5289
8.490,68.6394
8.500,63.8984
8.510,70.4976
8.520,58.8709
8.530,68.9492
8.540,63.1900
8.550,70.6254
8.560,62.9923
8.570,70.8569
8.580,70.0570
8.590,63.4441
8.600,64.9675
8.610,67.1088
8.620,61.4945
8.630,65.0300
8.640,63.2696
8.650,74.2436
8.660,71.5594
8.670,70.2054
8.680,69.8129
8.690,75.2709
8.700,72.0610
8.710,63.5770
8.720,70.8850
8.730,68.1621
8.740,72.0804
8.750,72.8242
8.760,72.5953
8.770,66.2229
8.780,74.9413
8.790,75.3537
8.800,69.2578
8.810,70.6785
8.820,66.9395
8.830,66.2459
8.840,70.6758
8.850,69.1551
8.860,73.6495
8.870,74.0030
8.880,68.2261
8.890,76.4098
8.900,72.8444
8.910,71.9004
8.920,74.4656
8.930,65.8957
8.940,70.8964
8.950,77.7298
8.960,73.2836
8.970,71.9997
8.980,71.1303
8.990,74.6061
9.000,71.4471
9.010,76.2141
9.020,70.2396
9.030,66.0330
9.040,69.9335
9.050,77.1498
9.060,73.5377
9.070,70.3230
9.080,65.3839
9.090,71.6690
9.100,69.7508
9.110,65.0385
9.120,66.7831
9.130,75.6869
9.140,69.8700
9.150,64.5557
9.160,63.8706
9.170,65.8495
9.180,70.7012
9.190,72.0955
9.200,65.9530
9.210,67.5257
9.220,68.7928
9.230,72.8582
9.240,69.1320
9.250,67.4288
9.260,66.8951
9.270,65.3887
9.280,69.0557
9.290,64.3253
9.300,61.0207
9.310,60.9386
9.320,63.1247
9.330,67.4479
9.340,65.3455
9.350,67.4541
9.360,58.5735
9.370,64.9035
9.380,69.7813
9.390,62.5878
9.400,62.2781
9.410,62.9632
9.420,64.6695
9.430,69.1359
9.440,69.8198
9.450,57.3894
9.460,63.1625
9.470,63.9601
9.480,67.5418
9.490,61.2130
9.500,62.2985
9.510,61.2738
9.520,57.7182
9.530,63.2429
9.540,55.8601
9.550,68.1354
9.560,65.3634
9.570,57.3658
9.580,59.9795
9.590,57.9778
9.600,66.7867
9.610,57.0625
9.620,60.3453
9.630,57.8519
9.640,65.6942
9.650,67.6372
9.660,60.4110
9.670,61.0136
9.680,66.8133
9.690,63.0256
9.700,60.0140
9.710,68.1409
9.720,65.5597
9.730,65.4415
9.740,58.5466
9.750,67.9126
9.760,65.7717
9.770,56.4501
9.780,60.7752
9.790,60.8807
9.800,57.1972
9.810,58.3707
9.820,61.6738
9.830,59.8519
9.840,64.3792
9.850,68.2064
9.860,60.7225
9.870,59.5097
9.880,63.5870
9.890,65.5396
9.900,65.3784
9.910,67.4796
9.920,66.8966
9.930,69.7703
9.940,60.5735
9.950,64.9533
9.960,60.6559
9.970,61.6004
9.980,64.3374
9.990,62.5402
10.000,67.8414
10.010,70.5361
10.020,71.7865
10.030,73.7465
10.040,63.1551
10.050,70.3824
10.060,66.0614
10.070,74.6668
10.080,72.9145
10.090,70.6605
10.100,62.7326
10.110,72.6214
10.120,70.7094
10.130,68.9661
10.140,65.0223
10.150,69.4913
10.160,76.1605
10.170,64.9947
10.180,67.6372
10.190,71.1485
10.200,76.7615
10.210,76.6564
10.220,71.2807
10.230,73.8082
10.240,67.0637
10.250,71.3483
10.260,70.4889
10.270,77.0511
10.280,76.4188
10.290,69.4374
10.300,66.4557
10.310,77.8143
10.320,77.6539
10.330,74.0602
10.340,75.6119
10.350,68.9930
10.360,75.8574
10.370,66.3800
10.380,68.5668
10.390,67.2439
10.400,67.0230
10.410,70.9037
10.420,69.7869
10.430,76.8236
10.440,76.9708
10.450,68.7155
10.460,77.8841
10.470,75.7811
10.480,66.2043
10.490,77.5480
10.500,69.4377
10.510,76.4193
10.520,64.8626
10.530,77.1034
10.540,73.0339
10.550,76.5840
10.560,71.2302
10.570,76.2399
10.580,65.8006
10.590,71.8025
10.600,75.1434
10.610,72.9092
10.620,70.7357
10.630,71.2331
10.640,65.4409
10.650,73.4357
10.660,67.7437
10.670,67.6927
10.680,62.9081
10.690,72.8707
10.700,66.7100
10.710,72.0685
10.720,68.1471
10.730,67.3895
10.740,71.6328
10.750,70.9073
10.760,60.8648
10.770,69.5875
10.780,64.0434
10.790,66.8476
10.800,59.4876
10.810,70.3245
10.820,62.2171
10.830,59.1842
10.840,68.9801
10.850,66.5914
10.860,61.8058
10.870,57.8312
10.880,69.8005
10.890,62.8052
10.900,62.2001
10.910,57.1496
10.920,57.2650
10.930,59.5861
10.940,56.4899
10.950,64.7735
10.960,58.6143
10.970,56.6750
10.980,66.6191
10.990,60.5645
11.000,62.3706
11.010,65.3372
11.020,65.8288
11.030,59.6975
11.040,67.2121
11.050,57.4095
11.060,57.1972
11.070,57.9531
11.080,57.3134
11.090,64.7469
11.100,57.3182
11.110,66.1899
11.120,63.2188
11.130,56.7432
11.140,66.5596
11.150,64.6092
11.160,63.5793
11.170,66.2981
11.180,60.6745
11.190,56.2132
11.200,60.5564
11.210,60.0398
11.220,66.7495
11.230,60.1568
11.240,63.0650
11.250,59.4601
11.260,62.9071
11.270,65.8705
11.280,66.3962
11.290,63.8404
11.300,66.9384
11.310,59.3724
11.320,70.1122
11.330,62.3566
11.340,69.1925
11.350,59.8319
11.360,59.9985
11.370,69.1836
11.380,66.2779
11.390,61.7430
11.400,67.9527
11.410,65.3189
11.420,72.2450
11.430,69.2713
11.440,67.8072
11.450,72.3351
11.460,64.4381
11.470,64.6679
11.480,71.1382
11.490,73.4944
11.500,75.1254
11.510,63.9655
11.520,74.0459
11.530,69.8204
11.540,75.4355
11.550,64.6086
11.560,66.4142
11.570,70.6288
11.580,65.0891
11.590,67.0130
11.600,68.0964
11.610,76.9531
11.620,64.9921
11.630,70.2095
11.640,74.3349
11.650,70.8150
11.660,75.5948
11.670,72.4067
11.680,69.5314
11.690,75.5063
11.700,65.5439
11.710,69.7720
11.720,70.5651
11.730,67.0423
11.740,75.4088
11.750,72.5552
11.760,76.8491
11.770,74.8029
11.780,73.8524
11.790,74.2775
11.800,73.8048
11.810,68.2347
11.820,68.6868
11.830,73.4855
11.840,75.8507
11.850,74.9799
11.860,76.0059
11.870,65.6346
11.880,68.3253
11.890,66.0578
11.900,68.4368
11.910,72.8237
11.920,76.5440
11.930,65.8604
11.940,68.5480
11.950,71.2364
11.960,74.9383
11.970,70.3535
11.980,72.2229
11.990,67.9167
12.000,71.3393
12.010,74.3518
12.020,64.7102
12.030,72.7394
12.040,73.6821
12.050,63.9309
12.060,64.2049
12.070,63.7676
12.080,74.4638
12.090,67.6053
12.100,73.5462
12.110,62.4817
12.120,69.1682
12.130,66.7175
12.140,66.4180
12.150,61.6871
12.160,61.2386
12.170,71.6042
12.180,71.0044
12.190,63.8429
12.200,70.3732
12.210,64.3737
12.220,64.0048
12.230,65.1318
12.240,66.3714
12.250,60.4162
12.260,60.9465
12.270,59.5119
12.280,60.4772
12.290,62.8001
12.300,68.5521
12.310,57.7219
12.320,65.0072
12.330,63.5460
12.340,67.9007
12.350,64.3996
12.360,67.9719
12.370,58.0132
12.380,68.9854
12.390,63.1012
12.400,56.8754
12.410,56.5900
12.420,56.1618
12.430,60.8448
12.440,68.6051
12.450,63.0294
12.460,64.8616
12.470,60.4964
12.480,61.9493
12.490,56.5136
12.500,64.3952
12.510,60.1418
12.520,56.4888
12.530,58.9021
12.540,64.5064
12.550,55.7287
12.560,63.8026
12.570,66.2838
12.580,57.3368
12.590,63.6224
12.600,58.4360
12.610,68.9786
12.620,62.1155
12.630,62.8552
12.640,58.5693
12.650,57.7374
12.660,66.4066
12.670,59.9063
12.680,64.3782
12.690,65.4143
12.700,69.0605
12.710,65.3836
12.720,63.9495
12.730,62.6158
12.740,60.1974
12.750,61.0407
12.760,62.0880
12.770,64.9218
12.780,68.5609
12.790,65.7706
12.800,71.5942
12.810,60.7463
12.820,69.6268
12.830,68.9064
12.840,64.7950
12.850,71.3347
12.860,73.6295
12.870,66.3514
12.880,63.7361
12.890,63.4340
12.900,71.5090
12.910,64.2163
12.920,68.2351
12.930,72.2879
12.940,71.1000
12.950,73.9555
12.960,72.8910
12.970,69.7236
12.980,71.3103
12.990,76.1243
13.000,74.6189
13.010,64.5437
13.020,68.3840
13.030,65.6458
13.040,67.6881
13.050,70.2006
13.060,75.8080
13.070,76.4261
13.080,67.3993
13.090,72.6772
13.100,77.4442
13.110,78.0817
13.120,69.2476
13.130,77.5507
13.140,74.7730
13.150,68.8007
13.160,75.3444
13.170,69.0408
13.180,68.8277
13.190,71.4306
13.200,66.6271
13.210,69.4245
13.220,68.4554
13.230,67.8593
13.240,66.6580
13.250,67.1769
13.260,78.0208
13.270,69.9613
13.280,68.1960
13.290,77.1355
13.300,67.1142
13.310,75.3958
13.320,74.4755
13.330,78.0906
13.340,72.1033
13.350,78.1663
13.360,73.2908
13.370,66.4899
13.380,76.4891
13.390,71.5393
13.400,70.7270
13.410,71.3692
13.420,68.0103
13.430,71.3992
13.440,73.2420
13.450,65.3124
13.460,74.4699
13.470,68.4587
13.480,72.3463
13.490,67.9927
13.500,74.2425
13.510,66.6820
13.520,72.1832
13.530,65.2910
13.540,68.0880
13.550,67.9073
13.560,68.7816
13.570,63.8084
13.580,70.2479
13.590,69.5137
13.600,72.8938
13.610,62.3198
13.620,64.0316
13.630,66.5872
13.640,72.3363
13.650,62.4331
13.660,69.5277
13.670,60.5186
13.680,70.4317
13.690,61.2318
13.700,62.7001
13.710,68.8866
13.720,64.6446
13.730,68.7884
13.740,68.4347
13.750,57.3010
13.760,59.6880
13.770,64.8509
13.780,61.6266
13.790,65.0527
13.800,64.8117
13.810,65.7402
13.820,60.8444
13.830,58.1800
13.840,61.4324
13.850,61.0216
13.860,60.0294
13.870,65.2677
13.880,60.2719
13.890,68.6570
13.900,67.6658
13.910,63.3824
13.920,61.9015
13.930,67.3855
13.940,67.8175
13.950,65.1146
13.960,60.0158
13.970,59.0001
13.980,64.2889
13.990,57.2364
14.000,68.2588
14.010,56.9441
14.020,58.6413
14.030,62.9871
14.040,67.6785
14.050,64.1391
14.060,58.9802
14.070,62.2445
14.080,60.9870
14.090,69.8933
14.100,62.8719
14.110,57.7186
14.120,64.3703
14.130,64.0693
14.140,62.0716
14.150,70.8755
14.160,68.4324
14.170,60.1496
14.180,69.4499
14.190,61.8346
14.200,69.8687
14.210,63.0408
14.220,63.6038
14.230,68.3740
14.240,66.8471
14.250,71.4896
14.260,63.5671
14.270,72.5840
14.280,72.0240
14.290,61.3783
14.300,74.0205
14.310,64.9921
14.320,66.8122
14.330,64.4206
14.340,67.2437
14.350,68.4024
14.360,70.2263
14.370,75.0385
14.380,69.6445
14.390,70.2048
14.400,75.8653
14.410,74.2429
14.420,76.0741
14.430,64.1885
14.440,66.2568
14.450,71.7162
14.460,76.5015
14.470,71.6679
14.480,68.7463
14.490,70.7814
14.500,66.7517
14.510,70.3452
14.520,73.3578
14.530,76.4198
14.540,78.5074
14.550,71.4332
14.560,78.7192
14.570,74.6585
14.580,69.6662
14.590,76.6387
14.600,77.1890
14.610,75.3795
14.620,77.2305
14.630,76.9710
14.640,72.9471
14.650,75.2029
14.660,77.3220
14.670,73.6527
14.680,78.8069
14.690,67.6807
14.700,76.1856
14.710,67.5999
14.720,71.6622
14.730,70.2970
14.740,69.3938
14.750,76.5153
14.760,68.0277
14.770,68.4794
14.780,66.5137
14.790,69.7875
14.800,66.6805
14.810,69.0790
14.820,77.3326
14.830,65.0520
14.840,66.9047
14.850,71.9518
14.860,74.2320
14.870,70.5378
14.880,72.3192
14.890,64.0179
14.900,65.0279
14.910,63.9342
14.920,69.6476
14.930,67.7733
14.940,63.8031
14.950,74.1945
14.960,71.4364
14.970,74.7578
14.980,71.3107
14.990,73.2350
15.000,61.7831
15.010,74.4075
15.020,75.2831
15.030,66.7919
15.040,78.0718
15.050,66.3945
15.060,69.5022
15.070,79.7242
15.080,70.3133
15.090,71.8122
15.100,83.8570
15.110,80.2616
15.120,75.5541
15.130,76.6348
15.140,87.4112
15.150,78.8789
15.160,83.7441
15.170,83.9509
15.180,89.1630
15.190,87.5247
15.200,85.6315
15.210,86.5103
15.220,84.9467
15.230,93.2011
15.240,95.9372
15.250,97.6654
15.260,90.1097
15.270,97.8274
15.280,89.9943
15.290,93.7274
15.300,96.7750
15.310,105.6489
15.320,103.5327
15.330,97.5712
15.340,102.7684
15.350,101.8952
15.360,98.0644
15.370,106.4381
15.380,100.5565
15.390,113.4027
15.400,102.1416
15.410,115.3566
15.420,106.2381
15.430,111.1256
15.440,114.7473
15.450,117.5011
15.460,114.0230
15.470,113.6033
15.480,111.4376
15.490,122.1377
15.500,124.7589
15.510,122.2341
15.520,119.7681
15.530,120.3577
15.540,122.3618
15.550,121.6957
15.560,130.9709
15.570,131.0809
15.580,130.3066
15.590,132.3651
15.600,134.4179
15.610,125.0945
15.620,134.0199
15.630,132.8122
15.640,130.6665
15.650,129.5835
15.660,139.1658
15.670,141.5085
15.680,131.6064
15.690,141.4736
15.700,144.9515
15.710,140.4104
15.720,144.9654
15.730,142.5151
15.740,138.8069
15.750,142.6474
15.760,149.0377
15.770,147.7458
15.780,148.0277
15.790,153.4219
15.800,151.1153
15.810,154.7807
15.820,152.4313
15.830,158.1961
15.840,151.9011
15.850,152.2929
15.860,152.2075
15.870,162.0123
15.880,154.9200
15.890,158.5749
15.900,160.4660
15.910,159.1748
15.920,158.1000
15.930,162.1867
15.940,158.4438
15.950,160.0737
15.960,166.0225
15.970,164.2004
15.980,173.5864
15.990,164.8513
16.000,166.8173
16.010,176.0729
16.020,164.0296
16.030,164.1077
16.040,165.6619
16.050,166.1510
16.060,167.7467
16.070,170.0761
16.080,167.5135
16.090,169.2513
16.100,171.6472
16.110,173.4109
16.120,170.6682
16.130,169.3270
16.140,167.3618
16.150,168.7800
16.160,174.3364
16.170,165.1652
16.180,166.3403
16.190,170.5643
16.200,174.8203
16.210,175.0483
16.220,167.7942
16.230,170.3076
16.240,166.4825
16.250,173.9782
16.260,165.7018
16.270,165.5541
16.280,174.7424
16.290,176.2209
16.300,169.7842
16.310,166.6682
16.320,165.4274
16.330,164.8272
16.340,169.9496
16.350,174.7880
16.360,172.8192
16.370,164.7437
16.380,173.2243
16.390,171.5020
16.400,168.1083
16.410,165.4763
16.420,166.3170
16.430,165.0113
16.440,165.5820
16.450,163.8046
16.460,171.3419
16.470,175.0736
16.480,175.6799
16.490,170.7646
16.500,175.0169
16.510,176.3587
16.520,172.3494
16.530,163.7546
16.540,174.8735
16.550,172.5882
16.560,172.1705
16.570,171.7559
16.580,168.0723
16.590,165.6411
16.600,167.0957
16.610,164.1699
16.620,164.8116
16.630,175.1995
16.640,176.0089
16.650,166.0236
16.660,170.9643
16.670,166.5497
16.680,167.4301
16.690,168.7388
16.700,176.4908
16.710,166.1613
16.720,164.4575
16.730,167.5471
16.740,167.6878
16.750,164.4212
16.760,171.5441
16.770,164.2758
16.780,174.5124
16.790,165.8650
16.800,165.5076
16.810,166.2007
16.820,170.1148
16.830,165.6841
16.840,167.4382
16.850,169.1975
16.860,169.2891
16.870,172.9743
16.880,166.2836
16.890,164.8195
16.900,164.8885
16.910,167.3091
16.920,174.7641
16.930,166.7298
16.940,175.2056
16.950,165.5403
16.960,168.0442
16.970,168.5110
16.980,173.9534
16.990,175.8098
17.000,63.1321
17.010,60.4259
17.020,70.7270
17.030,68.3036
17.040,65.2569
17.050,60.8550
17.060,60.2505
17.070,69.3993
17.080,69.3240
17.090,65.2348
17.100,69.3682
17.110,70.1013
17.120,62.0788
17.130,71.4131
17.140,71.9904
17.150,70.7836
17.160,71.0529
17.170,74.6827
17.180,70.9417
17.190,69.6775
17.200,66.3080
17.210,67.2206
17.220,64.4659
17.230,71.5458
17.240,75.9098
17.250,69.5398
17.260,68.5700
17.270,74.6855
17.280,67.2364
17.290,66.4468
17.300,77.7680
17.310,72.1231
17.320,73.5445
17.330,71.2764
17.340,78.2043
17.350,75.5334
17.360,70.5919
17.370,78.2751
17.380,74.8712
17.390,74.0299
17.400,79.1544
17.410,72.4602
17.420,69.8005
17.430,79.5876
17.440,79.4896
17.450,66.9648
17.460,72.0411
17.470,68.5792
17.480,71.6147
17.490,72.0966
17.500,77.5653
17.510,79.4141
17.520,77.5667
17.530,72.9043
17.540,71.1800
17.550,68.0455
17.560,73.7729
17.570,73.5273
17.580,74.6723
17.590,75.8552
17.600,73.7680
17.610,71.4682
17.620,66.5780
17.630,67.9432
17.640,76.2181
17.650,68.2555
17.660,65.7803
17.670,78.2647
17.680,68.7421
17.690,67.2825
17.700,65.6818
17.710,74.1325
17.720,72.6942
17.730,69.5390
17.740,71.2304
17.750,70.4403
17.760,70.0839
17.770,76.6209
17.780,70.9764
17.790,69.9069
17.800,74.3795
17.810,68.0310
17.820,70.0901
17.830,68.1535
17.840,66.9625
17.850,69.3425
17.860,70.9452
17.870,73.2633
17.880,66.1710
17.890,71.8278
17.900,66.5236
17.910,64.9967
17.920,71.3647
17.930,67.2146
17.940,69.3959
17.950,62.6734
17.960,63.6540
17.970,69.7676
17.980,60.9894
17.990,61.0617
18.000,68.3169
18.010,69.3153
18.020,62.7791
18.030,61.3213
18.040,58.0474
18.050,69.7133
18.060,69.0125
18.070,69.8144
18.080,62.3093
18.090,58.6922
18.100,63.6702
18.110,67.9241
18.120,60.1373
18.130,62.2239
18.140,57.6955
18.150,64.1087
18.160,60.2262
18.170,58.7349
18.180,59.7559
18.190,63.9561
18.200,59.3421
18.210,61.0703
18.220,68.9959
18.230,60.0699
18.240,58.8678
18.250,63.4358
18.260,67.1638
18.270,57.8110
18.280,63.2327
18.290,60.2573
18.300,58.1638
18.310,67.0860
18.320,67.5529
18.330,69.6085
18.340,60.1156
18.350,65.4218
18.360,67.7300
18.370,60.5876
18.380,67.9854
18.390,70.4067
18.400,66.5070
18.410,65.8594
18.420,68.1690
18.430,59.1977
18.440,71.2901
18.450,62.8604
18.460,60.3366
18.470,60.3637
18.480,70.2067
18.490,70.2088
18.500,64.2562
18.510,61.3329
18.520,70.1410
18.530,64.5183
18.540,63.6791
18.550,68.6094
18.560,65.2416
18.570,65.0405
18.580,62.2626
18.590,70.0914
18.600,69.8567
18.610,66.8233
18.620,67.6968
18.630,65.9486
18.640,67.5311
18.650,72.2546
18.660,73.1956
18.670,75.2951
18.680,66.0162
18.690,72.3660
18.700,66.6664
18.710,70.2162
18.720,69.7040
18.730,72.4367
18.740,75.7026
18.750,76.4654
18.760,78.0595
18.770,74.4138
18.780,67.1725
18.790,72.1620
18.800,76.6112
18.810,70.4259
18.820,69.0995
18.830,78.0397
18.840,76.4402
18.850,78.0135
18.860,74.2761
18.870,73.8082
18.880,71.1534
18.890,76.3626
18.900,75.5790
18.910,77.8382
18.920,74.8940
18.930,79.7701
18.940,69.2417
18.950,72.7639
18.960,77.7088
18.970,73.9632
18.980,74.9915
18.990,73.8666
19.000,74.3901
19.010,74.7762
19.020,66.7996
19.030,66.9230
19.040,72.7814
19.050,69.5854
19.060,69.4134
19.070,71.2819
19.080,77.6820
19.090,67.7618
19.100,66.5974
19.110,74.8295
19.120,77.4248
19.130,73.6755
19.140,72.5997
19.150,72.5518
19.160,72.8079
19.170,68.4820
19.180,65.1543
19.190,69.6414
19.200,70.0639
19.210,71.5196
19.220,68.6036
19.230,73.6760
19.240,66.6356
19.250,74.8857
19.260,63.7021
19.270,69.8019
19.280,66.2556
19.290,64.8237
19.300,67.8810
19.310,70.8167
19.320,66.7440
19.330,67.7397
19.340,61.3671
19.350,62.2411
19.360,70.7453
19.370,69.9413
19.380,66.8819
19.390,62.6761
19.400,63.7861
19.410,69.2673
19.420,66.3771
19.430,64.5538
19.440,62.0840
19.450,61.0302
19.460,64.6106
19.470,63.0715
19.480,59.8586
19.490,69.9436
19.500,66.6703
19.510,70.2176
19.520,59.9093
19.530,67.0014
19.540,62.8078
19.550,57.9615
19.560,58.1338
19.570,63.4823
19.580,67.6627
19.590,61.3707
19.600,60.2041
19.610,66.3559
19.620,67.2518
19.630,62.2654
19.640,61.5906
19.650,58.6671
19.660,62.2391
19.670,58.1389
19.680,64.6131
19.690,67.1377
19.700,61.3227
19.710,66.2585
19.720,63.9706
19.730,61.1600
19.740,69.4145
19.750,65.7397
19.760,68.3786
19.770,68.3865
19.780,65.9352
19.790,67.8146
19.800,59.3601
19.810,70.9809
19.820,68.9927
19.830,67.0579
19.840,68.5713
19.850,59.4447
19.860,66.8844
19.870,69.3189
19.880,63.9936
19.890,66.6540
19.900,66.8392
19.910,71.5347
19.920,70.5536
19.930,62.6181
19.940,62.0765
19.950,67.1946
19.960,70.3827
19.970,71.6638
19.980,67.6378
19.990,72.7060
20.000,69.4386
20.010,65.9698
20.020,73.5500
20.030,65.4384
20.040,64.9152
20.050,72.0870
20.060,64.0989
20.070,70.8526
20.080,68.0799
20.090,73.2439
20.100,75.3512
20.110,64.9532
20.120,76.0722
20.130,71.3928
20.140,70.4803
20.150,73.4069
20.160,76.2527
20.170,75.9222
20.180,69.9810
20.190,73.1725
20.200,69.6490
20.210,70.7824
20.220,78.9969
20.230,72.2303
20.240,78.5485
20.250,68.1667
20.260,74.0529
20.270,71.5361
20.280,79.4392
20.290,76.9154
20.300,76.6161
20.310,72.0529
20.320,79.4221
20.330,77.5302
20.340,72.9780
20.350,76.8544
20.360,70.0228
20.370,68.0261
20.380,76.2822
20.390,78.1071
20.400,76.8913
20.410,78.1216
20.420,77.5460
20.430,68.4430
20.440,76.8357
20.450,67.1865
20.460,70.8243
20.470,67.5952
20.480,68.1463
20.490,71.8324
20.500,76.1221
20.510,76.2958
20.520,70.3614
20.530,78.4653
20.540,70.4555
20.550,70.8201
20.560,66.5214
20.570,65.9682
20.580,69.8839
20.590,77.7994
20.600,74.9691
20.610,64.5192
20.620,70.9402
20.630,71.3192
20.640,75.3120
20.650,63.8227
20.660,65.4678
20.670,64.4464
20.680,64.3892
20.690,71.7956
20.700,68.8804
20.710,66.7335
20.720,73.1050
20.730,74.4317
20.740,62.8431
20.750,62.8323
20.760,66.5363
20.770,71.5402
20.780,73.7508
20.790,70.3791
20.800,69.1273
20.810,66.2637
20.820,72.7459
20.830,64.2807
20.840,64.4236
20.850,64.8565
20.860,60.0806
20.870,69.4037
20.880,68.7430
20.890,66.7031
20.900,58.7333
20.910,68.1441
20.920,68.0127
20.930,65.3554
20.940,62.5498
20.950,63.7423
20.960,67.8721
20.970,60.3573
20.980,61.5619
20.990,58.0983
21.000,58.4850
21.010,58.4065
21.020,62.1688
21.030,67.2206
21.040,57.8541
21.050,68.0976
21.060,57.9120
21.070,68.5315
21.080,60.8808
21.090,59.7501
21.100,67.4808
21.110,60.1114
21.120,63.3172
21.130,60.4747
21.140,65.9306
21.150,67.0075
21.160,57.5846
21.170,58.6574
21.180,64.1797
21.190,69.7696
21.200,69.5151
21.210,64.3072
21.220,66.9573
21.230,66.2478
21.240,61.3360
21.250,67.5649
21.260,64.5365
21.270,70.1669
21.280,63.5480
21.290,72.0110
21.300,68.0430
21.310,71.6131
21.320,63.4693
21.330,71.5281
21.340,60.5117
21.350,66.4833
21.360,61.8510
21.370,66.4060
21.380,62.6343
21.390,71.8809
21.400,69.6695
21.410,64.6317
21.420,64.9271
21.430,63.8887
21.440,66.1160
21.450,72.3878
21.460,74.1304
21.470,64.5994
21.480,68.2243
21.490,64.6862
21.500,70.7180
21.510,70.7164
21.520,67.7964
21.530,72.5429
21.540,64.9169
21.550,67.7228
21.560,75.0149
21.570,67.2530
21.580,66.3296
21.590,77.8496
21.600,67.4685
21.610,68.1048
21.620,68.0016
21.630,78.4683
21.640,67.6856
21.650,70.9823
21.660,70.7367
21.670,78.4846
21.680,70.5174
21.690,76.9295
21.700,69.4621
21.710,67.5111
21.720,75.1776
21.730,77.6592
21.740,78.8758
21.750,78.3966
21.760,71.1957
21.770,72.5650
21.780,74.7318
21.790,67.9681
21.800,78.8397
21.810,77.7291
21.820,73.7385
21.830,78.5330
21.840,68.9267
21.850,74.1604
21.860,73.3549
21.870,69.9198
21.880,79.8947
21.890,71.8745
21.900,78.5462
21.910,73.1759
21.920,71.2777
21.930,78.1179
21.940,70.6746
21.950,69.0330
21.960,69.2974
21.970,73.0547
21.980,73.7049
21.990,69.3295
22.000,70.2597
22.010,73.6605
22.020,75.8332
22.030,68.8295
22.040,67.6129
22.050,76.2270
22.060,70.2984
22.070,67.7246
22.080,74.0767
22.090,73.0189
22.100,66.7146
22.110,73.0176
22.120,75.1810
22.130,67.1625
22.140,69.7013
22.150,62.7953
22.160,69.7943
22.170,65.0680
22.180,70.0510
22.190,69.4830
22.200,63.5153
22.210,73.5053
22.220,66.5252
22.230,72.5436
22.240,61.9015
22.250,70.4719
22.260,68.2986
22.270,62.2263
22.280,70.6830
22.290,64.9436
22.300,63.4627
22.310,60.3692
22.320,64.5478
22.330,67.5722
22.340,71.2808
22.350,63.2495
22.360,69.4507
22.370,59.7947
22.380,64.2184
22.390,67.6203
22.400,64.7180
22.410,59.9587
22.420,64.0938
22.430,66.7019
22.440,59.9013
22.450,68.4960
22.460,61.4618
22.470,70.3058
22.480,61.0830
22.490,58.9684
22.500,58.4358
22.510,66.6010
22.520,63.3613
22.530,62.8763
22.540,63.9823
22.550,63.9271
22.560,64.6336
22.570,58.4596
22.580,60.1854
22.590,66.9308
22.600,63.8417
22.610,62.0471
22.620,60.9325
22.630,58.9467
22.640,68.4562
22.650,67.0830
22.660,65.2024
22.670,68.8787
22.680,70.1082
22.690,68.1963
22.700,65.9674
22.710,63.2669
22.720,63.0109
22.730,66.1083
22.740,67.3090
22.750,68.0770
22.760,65.7114
22.770,70.7284
22.780,70.5143
22.790,68.1382
22.800,66.6731
22.810,67.9204
22.820,68.8272
22.830,63.2619
22.840,71.5346
22.850,72.3026
22.860,73.4529
22.870,70.5419
22.880,74.7816
22.890,65.2705
22.900,68.9306
22.910,72.4632
22.920,70.1909
22.930,67.6985
22.940,64.9366
22.950,65.7321
22.960,72.2251
22.970,76.4018
22.980,72.6312
22.990,70.7491
23.000,76.6853
23.010,66.6667
23.020,69.0551
23.030,69.4989
23.040,68.1850
23.050,67.0921
23.060,67.0702
23.070,71.1386
23.080,71.2708
23.090,72.2752
23.100,71.0746
23.110,68.3000
23.120,78.5283
23.130,70.4875
23.140,79.7461
23.150,69.2616
23.160,78.9895
23.170,77.1266
23.180,71.4995
23.190,74.8726
23.200,72.6500
23.210,70.1094
23.220,75.2050
23.230,76.0707
23.240,69.9258
23.250,77.7672
23.260,71.1761
23.270,71.1446
23.280,76.6733
23.290,79.0532
23.300,79.4492
23.310,68.5141
23.320,67.6528
23.330,78.3694
23.340,74.4402
23.350,74.8998
23.360,69.7536
23.370,78.7568
23.380,78.8640
23.390,78.3472
23.400,72.2575
23.410,77.8147
23.420,72.4243
23.430,71.9680
23.440,73.1890
23.450,73.6414
23.460,70.9005
23.470,70.8502
23.480,77.6225
23.490,76.0696
23.500,68.3463
23.510,66.1884
23.520,67.3935
23.530,75.3881
23.540,75.9815
23.550,74.3691
23.560,65.4929
23.570,64.8614
23.580,70.9989
23.590,65.4612
23.600,72.7774
23.610,70.2407
23.620,65.1625
23.630,68.6373
23.640,62.8679
23.650,66.5863
23.660,62.2863
23.670,68.0666
23.680,64.2638
23.690,63.8356
23.700,60.3062
23.710,68.0505
23.720,61.0747
23.730,68.9894
23.740,62.5546
23.750,70.9827
23.760,61.7892
23.770,66.9272
23.780,58.8704
23.790,64.6354
23.800,69.5424
23.810,63.3375
23.820,68.8824
23.830,70.6525
23.840,62.5419
23.850,68.2006
23.860,58.3214
23.870,65.9422
23.880,61.8665
23.890,65.5709
23.900,64.9730
23.910,70.0899
23.920,61.9547
23.930,64.1132
23.940,59.4324
23.950,59.3165
23.960,65.1143
23.970,66.1802
23.980,61.2274
23.990,66.3912
24.000,63.5700
24.010,67.2645
24.020,63.5103
24.030,63.9389
24.040,63.0826
24.050,61.1149
24.060,61.5955
24.070,59.2182
24.080,67.9777
24.090,65.4094
24.100,64.0071
24.110,64.9978
24.120,70.9987
24.130,63.6346
24.140,63.5027
24.150,65.5572
24.160,72.6837
24.170,65.7314
24.180,60.6101
24.190,60.8863
24.200,68.0975
24.210,61.3574
24.220,63.4913
24.230,66.2850
24.240,68.5470
24.250,74.0405
24.260,71.1766
24.270,71.3127
24.280,66.7677
24.290,74.0797
24.300,68.5009
24.310,66.7653
24.320,66.4251
24.330,72.5554
24.340,74.6472
24.350,72.1809
24.360,74.8902
24.370,67.6574
24.380,76.7036
24.390,67.9325
24.400,68.5284
24.410,65.9327
24.420,68.4749
24.430,76.5571
24.440,68.1711
24.450,77.0885
24.460,71.2777
24.470,73.0613
24.480,69.2185
24.490,70.2262
24.500,75.7076
24.510,68.7154
24.520,71.3860
24.530,75.6145
24.540,72.8001
24.550,77.0817
24.560,71.2343
24.570,73.6921
24.580,78.0090
24.590,75.0930
24.600,78.1492
24.610,73.8794
24.620,75.1265
24.630,68.4625
24.640,73.2144
24.650,69.3552
24.660,74.4599
24.670,68.6860
24.680,69.3557
24.690,79.6359
24.700,76.1473
24.710,78.4834
24.720,79.0912
24.730,72.5177
24.740,79.5406
24.750,73.9005
24.760,75.2709
24.770,75.0018
24.780,74.5555
24.790,69.0979
24.800,72.2441
24.810,68.6096
24.820,77.9334
24.830,70.3698
24.840,73.5709
24.850,66.3161
24.860,69.4442
24.870,77.4212
24.880,68.4427
24.890,74.9571
24.900,66.7776
24.910,65.6430
24.920,65.3701
24.930,74.0521
24.940,76.6264
24.950,71.3905
24.960,68.9087
24.970,75.9559
24.980,65.7063
24.990,73.1456
25.000,66.3056
25.010,70.3408
25.020,71.1859
25.030,71.1808
25.040,63.1353
25.050,73.8796
25.060,67.6835
25.070,67.6739
25.080,71.4294
25.090,61.8871
25.100,70.5895
25.110,65.8745
25.120,64.7291
25.130,63.7933
25.140,68.1230
25.150,66.7834
25.160,60.1229
25.170,62.9616
25.180,68.8132
25.190,71.3912
25.200,71.9837
25.210,66.5867
25.220,60.4325
25.230,67.9299
25.240,64.0894
25.250,64.9941
25.260,68.0987
25.270,69.8462
25.280,59.1344
25.290,67.4787
25.300,70.3572
25.310,68.9612
25.320,65.2513
25.330,64.7852
25.340,70.6382
25.350,67.9649
25.360,64.8426
25.370,70.0869
25.380,70.3942
25.390,60.0399
25.400,69.8625
25.410,61.1075
25.420,66.7999
25.430,64.7248
25.440,69.1389
25.450,58.5498
25.460,68.2214
25.470,61.5820
25.480,60.7914
25.490,66.0153
25.500,59.6757
25.510,71.5079
25.520,64.7306
25.530,67.2234
25.540,64.4526
25.550,61.9947
25.560,62.1026
25.570,63.6601
25.580,69.3748
25.590,71.2741
25.600,72.4284
25.610,64.8339
25.620,72.2253
25.630,74.1936
25.640,66.1067
25.650,73.8698
25.660,72.7598
25.670,62.4866
25.680,74.8089
25.690,72.6732
25.700,65.4157
25.710,75.4933
25.720,74.9744
25.730,73.3167
25.740,68.5391
25.750,67.2999
25.760,67.7350
25.770,67.4833
25.780,65.3396
25.790,71.8866
25.800,66.5286
25.810,72.4096
25.820,69.9164
25.830,72.3492
25.840,67.4263
25.850,67.0866
25.860,71.7558
25.870,71.0421
25.880,79.1449
25.890,69.1690
25.900,76.1379
25.910,71.8312
25.920,72.2706
25.930,76.3229
25.940,77.2360
25.950,68.1227
25.960,75.2498
25.970,78.5384
25.980,68.8046
25.990,71.1246
26.000,77.7011
26.010,75.6338
26.020,76.2986
26.030,70.2760
26.040,68.6469
26.050,73.1059
26.060,73.8705
26.070,73.1581
26.080,80.0766
26.090,77.3644
26.100,69.7278
26.110,81.2112
26.120,78.1364
26.130,70.1804
26.140,74.4280
26.150,68.8640
26.160,78.7834
26.170,77.8161
26.180,71.3732
26.190,76.2951
26.200,69.1353
26.210,76.8688
26.220,69.2719
26.230,69.7072
26.240,74.7574
26.250,79.1552
26.260,76.3027
26.270,75.0480
26.280,73.0375
26.290,70.2709
26.300,71.9953
26.310,78.7734
26.320,77.6103
26.330,72.0308
26.340,76.6713
26.350,71.6913
26.360,77.7860
26.370,76.9911
26.380,76.0869
26.390,76.4995
26.400,70.4172
26.410,67.4282
26.420,69.2867
26.430,74.4695
26.440,65.1500
26.450,71.4619
26.460,73.8525
26.470,65.7300
26.480,71.6899
26.490,65.9790
26.500,67.5370
26.510,74.2933
26.520,71.7612
26.530,66.9734
26.540,73.4992
26.550,66.2540
26.560,72.0503
26.570,66.0522
26.580,71.6036
26.590,70.1299
26.600,64.4788
26.610,67.7001
26.620,69.1892
26.630,64.2520
26.640,65.4073
26.650,63.6429
26.660,65.2057
26.670,61.6585
26.680,61.3623
26.690,67.4933
26.700,67.0101
26.710,69.8814
26.720,69.8484
26.730,61.2219
26.740,71.0775
26.750,66.6631
26.760,64.7483
26.770,64.2059
26.780,66.9642
26.790,70.7178
26.800,68.5202
26.810,58.6528
26.820,67.1619
26.830,58.5574
26.840,60.9834
26.850,61.3912
26.860,63.0793
26.870,66.1241
26.880,69.3327
26.890,62.3946
26.900,63.7233
26.910,61.0246
26.920,65.4361
26.930,59.2557
26.940,66.5593
26.950,63.9296
26.960,65.5812
26.970,64.9720
26.980,61.8371
26.990,70.3303
27.000,73.2996
27.010,72.1632
27.020,73.1906
27.030,71.4881
27.040,68.8990
27.050,64.6600
27.060,65.5234
27.070,65.9221
27.080,72.0601
27.090,71.8285
27.100,73.7096
27.110,67.6956
27.120,66.6507
27.130,70.7790
27.140,71.6531
27.150,76.3911
27.160,66.7259
27.170,74.6736
27.180,70.6327
27.190,65.3730
27.200,68.0904
27.210,66.5883
27.220,75.9934
27.230,76.0995
27.240,68.1412
27.250,73.0610
27.260,74.7582
27.270,73.5927
27.280,71.2786
27.290,70.0267
27.300,70.0561
27.310,69.8194
27.320,79.2917
27.330,74.6646
27.340,70.4152
27.350,78.7395
27.360,70.2968
27.370,68.6618
27.380,69.0753
27.390,68.8357
27.400,78.3176
27.410,72.6453
27.420,70.9523
27.430,78.0801
27.440,73.3870
27.450,76.4058
27.460,75.5630
27.470,80.8535
27.480,81.5835
27.490,77.3736
27.500,75.2667
27.510,73.2591
27.520,77.6041
27.530,73.1698
27.540,77.3228
27.550,80.5046
27.560,72.2154
27.570,74.3341
27.580,74.0893
27.590,75.1807
27.600,75.2498
27.610,71.9812
27.620,79.9313
27.630,73.5327
27.640,74.5275
27.650,75.7748
27.660,70.2355
27.670,69.5576
27.680,72.4233
27.690,73.7236
27.700,71.4522
27.710,72.1871
27.720,79.0946
27.730,75.3629
27.740,66.1604
27.750,72.3537
27.760,76.6564
27.770,70.0497
27.780,76.1966
27.790,66.5756
27.800,71.7649
27.810,69.3843
27.820,76.6380
27.830,65.3506
27.840,66.3865
27.850,65.7733
27.860,74.5631
27.870,64.4409
27.880,67.8750
27.890,71.8265
27.900,72.3398
27.910,74.1587
27.920,72.5264
27.930,63.5709
27.940,64.9587
27.950,64.3641
27.960,72.5874
27.970,71.8326
27.980,72.1832
27.990,71.3628
28.000,62.9754
28.010,70.8037
28.020,72.1359
28.030,67.4347
28.040,67.7405
28.050,71.5298
28.060,69.0524
28.070,59.7900
28.080,65.3776
28.090,62.7138
28.100,64.0569
28.110,60.2102
28.120,61.1280
28.130,69.9596
28.140,65.3970
28.150,63.4525
28.160,60.5056
28.170,64.3137
28.180,67.8988
28.190,63.4144
28.200,59.7681
28.210,67.3363
28.220,66.8287
28.230,63.2920
28.240,67.6022
28.250,68.1168
28.260,61.9326
28.270,62.9419
28.280,61.4340
28.290,61.7463
28.300,66.6954
28.310,59.0799
28.320,61.0840
28.330,66.0027
28.340,62.8388
28.350,64.2620
28.360,71.5916
28.370,67.3463
28.380,66.2530
28.390,67.3463
28.400,65.0975
28.410,66.0469
28.420,60.5846
28.430,65.5004
28.440,64.0996
28.450,72.1597
28.460,70.9025
28.470,69.3565
28.480,64.7761
28.490,67.1287
28.500,64.6258
28.510,68.2563
28.520,69.3401
28.530,67.5801
28.540,63.1335
28.550,66.1924
28.560,63.7189
28.570,65.4156
28.580,70.6622
28.590,74.6138
28.600,73.8429
28.610,69.7887
28.620,72.4046
28.630,65.7501
28.640,67.6261
28.650,68.4921
28.660,78.4483
28.670,68.8741
28.680,70.2693
28.690,75.1137
28.700,74.9506
28.710,70.5892
28.720,78.4696
28.730,71.9655
28.740,72.9513
28.750,71.8306
28.760,78.4221
28.770,74.7594
28.780,74.7290
28.790,77.9286
28.800,73.0386
28.810,73.1596
28.820,69.1299
28.830,79.4201
28.840,79.8331
28.850,78.9643
28.860,74.4984
28.870,75.5453
28.880,80.4343
28.890,80.3517
28.900,69.7020
28.910,80.1217
28.920,71.9939
28.930,81.1698
28.940,70.4750
28.950,75.2766
28.960,77.9072
28.970,80.4006
28.980,79.4898
28.990,71.9099
29.000,75.4292
29.010,70.7949
29.020,70.0532
29.030,78.1685
29.040,71.4256
29.050,78.4826
29.060,69.5062
29.070,72.8932
29.080,78.8252
29.090,71.3925
29.100,69.4718
29.110,75.5171
29.120,73.4790
29.130,72.9455
29.140,69.0705
29.150,76.0341
29.160,67.9932
29.170,74.0678
29.180,66.4598
29.190,67.6549
29.200,71.1647
29.210,72.3441
29.220,74.7006
29.230,73.5510
29.240,70.5738
29.250,73.6351
29.260,76.0969
29.270,74.4710
29.280,71.2942
29.290,70.4984
29.300,69.8678
29.310,76.0623
29.320,74.0023
29.330,74.5930
29.340,72.9251
29.350,69.0255
29.360,67.3902
29.370,63.5525
29.380,73.1167
29.390,68.2237
29.400,65.0089
29.410,70.2654
29.420,61.2823
29.430,62.9294
29.440,69.1786
29.450,66.4467
29.460,68.4409
29.470,67.5756
29.480,65.4899
29.490,61.8450
29.500,65.0841
29.510,60.0486
29.520,66.0968
29.530,63.1261
29.540,64.4082
29.550,63.9422
29.560,64.5323
29.570,59.3917
29.580,68.0063
29.590,64.9124
29.600,70.9313
29.610,70.5607
29.620,67.3287
29.630,64.9978
29.640,62.6056
29.650,67.9228
29.660,59.0469
29.670,60.8659
29.680,60.9672
29.690,66.1640
29.700,66.7300
29.710,59.4092
29.720,64.8668
29.730,62.3943
29.740,66.1379
29.750,70.2296
29.760,65.7362
29.770,64.9679
29.780,63.6829
29.790,66.1702
29.800,71.9832
29.810,61.5036
29.820,64.6468
29.830,64.2304
29.840,63.2008
29.850,63.5629
29.860,72.3946
29.870,73.6219
29.880,66.0388
29.890,66.0190
29.900,72.6419
29.910,63.4001
29.920,64.7977
29.930,69.9981
29.940,71.3208
29.950,64.4131
29.960,69.5743
29.970,74.7078
29.980,69.5927
29.990,72.7994
30.000,68.7076
30.010,76.2808
30.020,71.1696
30.030,75.6735
30.040,68.3046
30.050,75.0761
30.060,80.7318
30.070,80.3353
30.080,75.5618
30.090,74.8630
30.100,85.3665
30.110,82.2656
30.120,83.4738
30.130,89.3317
30.140,81.1299
30.150,83.9742
30.160,93.4852
30.170,85.9254
30.180,94.4074
30.190,88.3013
30.200,97.2498
30.210,91.5531
30.220,90.2176
30.230,88.8871
30.240,98.9129
30.250,95.8113
30.260,93.1712
30.270,100.3508
30.280,100.7126
30.290,104.3254
30.300,102.3069
30.310,102.6454
30.320,101.7380
30.330,104.3473
30.340,109.4255
30.350,101.8678
30.360,109.9729
30.370,105.4660
30.380,112.5500
30.390,107.2526
30.400,119.0714
30.410,118.1169
30.420,114.4395
30.430,116.5501
30.440,115.9587
30.450,123.3401
30.460,118.3532
30.470,121.8724
30.480,126.1955
30.490,126.5413
30.500,126.5054
30.510,129.9258
30.520,126.5955
30.530,132.5508
30.540,123.5652
30.550,130.8248
30.560,123.9659
30.570,136.4909
30.580,131.8633
30.590,126.7457
30.600,128.2234
30.610,135.3256
30.620,138.5942
30.630,132.7974
30.640,144.6791
30.650,139.3972
30.660,138.8212
30.670,147.8988
30.680,143.0540
30.690,148.3353
30.700,143.8200
30.710,147.2712
30.720,141.9478
30.730,143.0018
30.740,152.5419
30.750,147.4307
30.760,145.0902
30.770,156.0803
30.780,150.3680
30.790,155.7953
30.800,153.1912
30.810,155.5420
30.820,160.0094
30.830,158.6826
30.840,161.2590
30.850,159.5128
30.860,163.0625
30.870,157.6679
30.880,163.9024
30.890,169.9931
30.900,170.0714
30.910,170.5241
30.920,169.6951
30.930,173.7349
30.940,172.2437
30.950,164.9887
30.960,172.9093
30.970,175.2301
30.980,173.4476
30.990,174.0347
31.000,172.2950
31.010,180.0202
31.020,180.3608
31.030,182.9583
31.040,173.0006
31.050,171.3823
31.060,182.2415
31.070,177.4138
31.080,179.5853
31.090,171.4830
31.100,174.6056
31.110,179.0689
31.120,175.4769
31.130,172.8533
31.140,172.4129
31.150,177.1088
31.160,173.0486
31.170,175.4195
31.180,177.7713
31.190,173.7337
31.200,172.2989
31.210,175.2203
31.220,181.9394
31.230,175.8428
31.240,176.7649
31.250,181.1472
31.260,182.4706
31.270,182.7070
31.280,173.5383
31.290,180.1643
31.300,172.6115
31.310,170.2153
31.320,176.6959
31.330,177.7087
31.340,182.9037
31.350,171.9465
31.360,179.6282
31.370,175.0319
31.380,175.7741
31.390,173.2353
31.400,170.3731
31.410,175.5738
31.420,180.5892
31.430,181.8852
31.440,173.2635
31.450,171.0353
31.460,175.9680
31.470,181.3773
31.480,173.9932
31.490,177.6116
31.500,179.0212
31.510,170.4102
31.520,182.3482
31.530,178.0140
31.540,181.3891
31.550,170.3617
31.560,174.2275
31.570,179.2495
31.580,178.5512
31.590,182.8597
31.600,180.7394
31.610,171.2420
31.620,174.9848
31.630,172.3207
31.640,177.0886
31.650,177.1960
31.660,181.1741
31.670,178.7377
31.680,177.2906
31.690,173.8554
31.700,174.9267
31.710,175.8320
31.720,172.2998
31.730,176.5677
31.740,178.9072
31.750,177.7939
31.760,182.4825
31.770,171.2353
31.780,181.2159
31.790,181.6888
31.800,178.2744
31.810,178.2817
31.820,174.9411
31.830,173.6720
31.840,171.6860
31.850,173.8011
31.860,171.9252
31.870,180.3529
31.880,176.0205
31.890,182.1225
31.900,180.7785
31.910,176.0788
31.920,182.4087
31.930,178.0786
31.940,182.0255
31.950,172.3320
31.960,170.9481
31.970,179.0497
31.980,174.5556
31.990,174.5684
32.000,68.3195
32.010,72.4995
32.020,70.7041
32.030,67.1207
32.040,73.0834
32.050,70.9117
32.060,73.2600
32.070,73.3848
32.080,75.5128
32.090,72.8902
32.100,76.8310
32.110,73.5126
32.120,71.4442
32.130,69.1975
32.140,71.3667
32.150,76.4683
32.160,68.4342
32.170,74.0193
32.180,63.7170
32.190,74.4176
32.200,70.5903
32.210,73.9990
32.220,67.5099
32.230,66.5383
32.240,68.9584
32.250,73.7618
32.260,69.5697
32.270,70.4342
32.280,72.8503
32.290,73.8350
32.300,61.8570
32.310,65.9513
32.320,67.3171
32.330,72.7587
32.340,66.2949
32.350,61.2430
32.360,71.6646
32.370,68.6776
32.380,65.7197
32.390,61.8369
32.400,67.4171
32.410,63.2868
32.420,59.9285
32.430,65.0889
32.440,69.2200
32.450,68.3021
32.460,68.5920
32.470,64.9801
32.480,59.3027
32.490,59.1726
32.500,70.8349
32.510,59.3153
32.520,69.2886
32.530,71.2673
32.540,70.9522
32.550,65.6323
32.560,59.8631
32.570,66.2290
32.580,67.0159
32.590,61.0112
32.600,62.5063
32.610,70.8201
32.620,62.4555
32.630,70.0063
32.640,67.8841
32.650,71.2260
32.660,68.8160
32.670,71.5383
32.680,64.4829
32.690,72.7144
32.700,63.0581
32.710,61.8241
32.720,62.8415
32.730,66.3567
32.740,62.6498
32.750,66.2417
32.760,70.3599
32.770,66.3121
32.780,65.9045
32.790,73.8349
32.800,74.6140
32.810,64.7211
32.820,76.1072
32.830,72.7137
32.840,73.6783
32.850,69.4764
32.860,67.4274
32.870,74.6942
32.880,76.9896
32.890,75.7634
32.900,67.7312
32.910,71.8451
32.920,66.8246
32.930,78.0450
32.940,71.7740
32.950,75.0575
32.960,70.5277
32.970,70.8473
32.980,74.8623
32.990,69.8401
33.000,75.7813
33.010,79.9928
33.020,71.7784
33.030,78.1938
33.040,71.1288
33.050,68.5738
33.060,70.1171
33.070,78.7286
33.080,76.3217
33.090,77.5565
33.100,76.9777
33.110,73.7047
33.120,79.3099
33.130,75.1237
33.140,81.9224
33.150,77.0755
33.160,75.4473
33.170,72.5112
33.180,72.9926
33.190,75.7812
33.200,72.9030
33.210,75.7504
33.220,73.7121
33.230,78.0761
33.240,74.5960
33.250,73.9859
33.260,78.7503
33.270,74.5021
33.280,76.1263
33.290,74.1789
33.300,74.6527
33.310,70.7857
33.320,81.1041
33.330,78.7634
33.340,70.7213
33.350,79.3054
33.360,76.7520
33.370,77.7984
33.380,78.4634
33.390,76.0319
33.400,73.1780
33.410,74.2235
33.420,71.9769
33.430,76.8810
33.440,68.6210
33.450,68.6038
33.460,73.8518
33.470,69.3917
33.480,70.7787
33.490,72.9168
33.500,76.0867
33.510,72.2415
33.520,69.4116
33.530,74.7807
33.540,71.2525
33.550,74.4133
33.560,66.3505
33.570,76.6279
33.580,74.2952
33.590,68.4845
33.600,76.2720
33.610,66.1473
33.620,69.9563
33.630,70.2607
33.640,72.2893
33.650,73.2373
33.660,64.7146
33.670,67.0180
33.680,70.3142
33.690,67.3670
33.700,74.6537
33.710,63.8830
33.720,74.1214
33.730,70.6915
33.740,69.2826
33.750,71.6784
33.760,64.9631
33.770,65.1420
33.780,71.8198
33.790,63.4914
33.800,69.5390
33.810,64.6644
33.820,61.6051
33.830,63.5064
33.840,60.4668
33.850,67.3722
33.860,66.9362
33.870,70.1943
33.880,70.6183
33.890,60.8282
33.900,67.4813
33.910,60.3717
33.920,66.7633
33.930,68.5794
33.940,60.6479
33.950,67.5613
33.960,69.2460
33.970,60.2050
33.980,61.6678
33.990,65.1605
34.000,67.5210
34.010,64.8344
34.020,65.4407
34.030,65.4219
34.040,66.4656
34.050,69.4029
34.060,62.3030
34.070,66.1478
34.080,66.4527
34.090,65.3221
34.100,63.8653
34.110,61.9658
34.120,65.6443
34.130,64.8013
34.140,71.1270
34.150,67.7902
34.160,72.9964
34.170,73.0543
34.180,63.4362
34.190,65.0081
34.200,67.3851
34.210,74.9776
34.220,65.9314
34.230,69.6559
34.240,72.2763
34.250,72.7007
34.260,71.6227
34.270,66.8750
34.280,67.1251
34.290,74.3062
34.300,76.9781
34.310,65.9316
34.320,65.8603
34.330,71.2612
34.340,72.6961
34.350,71.0880
34.360,69.5670
34.370,78.0052
34.380,76.3541
34.390,71.5042
34.400,75.2758
34.410,72.4364
34.420,73.1542
34.430,71.9746
34.440,72.6496
34.450,70.1151
34.460,73.4171
34.470,76.4982
34.480,71.8641
34.490,76.6049
34.500,71.5162
34.510,71.2096
34.520,71.5145
34.530,79.0041
34.540,81.6315
34.550,77.9860
34.560,73.6734
34.570,76.4702
34.580,72.2383
34.590,74.6224
34.600,73.8733
34.610,72.3317
34.620,75.9640
34.630,72.3690
34.640,75.5210
34.650,79.3635
34.660,73.3591
34.670,76.8404
34.680,77.4466
34.690,75.9106
34.700,80.0042
34.710,77.9168
34.720,70.2673
34.730,72.5294
34.740,81.7531
34.750,69.5557
34.760,80.2800
34.770,74.5609
34.780,80.4200
34.790,70.4749
34.800,72.3726
34.810,79.3792
34.820,74.3054
34.830,73.9597
34.840,72.2193
34.850,73.1576
34.860,71.4027
34.870,74.4601
34.880,73.0941
34.890,76.9797
34.900,72.5345
34.910,67.2592
34.920,78.6346
34.930,73.3239
34.940,78.1541
34.950,78.4938
34.960,76.4365
34.970,77.0121
34.980,67.6256
34.990,70.5364
35.000,75.5938
35.010,71.2776
35.020,69.9355
35.030,69.0074
35.040,72.6954
35.050,66.0988
35.060,75.7159
35.070,69.3527
35.080,66.2883
35.090,64.2460
35.100,74.3268
35.110,67.7007
35.120,64.9286
35.130,72.1530
35.140,63.9496
35.150,63.7078
35.160,61.6892
35.170,63.6949
35.180,73.1898
35.190,70.1437
35.200,61.7340
35.210,71.9461
35.220,65.9859
35.230,72.4883
35.240,65.2979
35.250,68.7252
35.260,63.6399
35.270,67.4574
35.280,72.1073
35.290,69.5054
35.300,63.4345
35.310,69.8493
35.320,62.1082
35.330,64.0314
35.340,64.7892
35.350,61.9658
35.360,64.0545
35.370,61.1778
35.380,67.5549
35.390,70.2586
35.400,61.7882
35.410,69.1242
35.420,67.8921
35.430,66.7443
35.440,60.0994
35.450,64.4111
35.460,69.5287
35.470,65.7283
35.480,62.1121
35.490,63.4696
35.500,62.7700
35.510,64.9955
35.520,71.9336
35.530,71.5810
35.540,62.4419
35.550,65.0452
35.560,67.3530
35.570,62.5744
35.580,66.7549
35.590,65.7015
35.600,66.8892
35.610,64.8936
35.620,64.9700
35.630,66.7974
35.640,73.7450
35.650,67.3218
35.660,64.2363
35.670,71.3615
35.680,64.9451
35.690,73.3017
35.700,69.8180
35.710,66.1288
35.720,65.6138
35.730,65.4262
35.740,78.1608
35.750,70.6730
35.760,74.8829
35.770,74.2223
35.780,76.1462
35.790,76.6194
35.800,67.9506
35.810,67.8041
35.820,75.3754
35.830,80.1838
35.840,79.9473
35.850,79.6360
35.860,75.3468
35.870,78.4821
35.880,73.1247
35.890,72.6843
35.900,77.0484
35.910,72.8414
35.920,76.5228
35.930,70.1918
35.940,81.6304
35.950,76.8680
35.960,73.8600
35.970,73.3142
35.980,75.0570
35.990,80.5435
36.000,80.7116
36.010,80.3895
36.020,73.5549
36.030,71.6605
36.040,73.4990
36.050,76.4259
36.060,70.9515
36.070,71.8256
36.080,73.9369
36.090,78.9621
36.100,72.8517
36.110,70.5171
36.120,77.8006
36.130,81.7795
36.140,80.1417
36.150,78.6458
36.160,70.6558
36.170,72.1621
36.180,81.9814
36.190,80.5267
36.200,72.4779
36.210,82.2483
36.220,71.8561
36.230,78.6489
36.240,71.5784
36.250,75.7147
36.260,72.6568
36.270,70.1849
36.280,72.4289
36.290,69.5352
36.300,70.1315
36.310,80.4091
36.320,70.5270
36.330,68.6274
36.340,74.5988
36.350,76.1915
36.360,75.7309
36.370,67.0127
36.380,71.2784
36.390,73.8791
36.400,67.8081
36.410,69.1291
36.420,65.8022
36.430,71.2598
36.440,66.3772
36.450,75.7661
36.460,66.4804
36.470,65.3590
36.480,73.9354
36.490,66.5903
36.500,65.5983
36.510,63.5059
36.520,73.0642
36.530,75.2954
36.540,63.6872
36.550,71.8196
36.560,67.8401
36.570,68.6593
36.580,74.6131
36.590,64.3163
36.600,73.9603
36.610,73.0442
36.620,67.0895
36.630,73.5535
36.640,71.4623
36.650,69.9696
36.660,68.5579
36.670,65.6524
36.680,66.1127
36.690,66.1090
36.700,72.7087
36.710,65.8841
36.720,64.0013
36.730,65.5476
36.740,65.4139
36.750,71.0959
36.760,61.4386
36.770,63.3018
36.780,65.2382
36.790,65.1161
36.800,68.5929
36.810,63.3159
36.820,64.7590
36.830,64.7666
36.840,64.1197
36.850,60.9783
36.860,66.2657
36.870,62.1876
36.880,62.9392
36.890,61.3168
36.900,71.9618
36.910,65.2663
36.920,61.9068
36.930,72.4485
36.940,62.7475
36.950,66.8359
36.960,66.8667
36.970,72.3280
36.980,69.9278
36.990,66.6704
37.000,72.7727
37.010,65.8001
37.020,65.9115
37.030,65.6936
37.040,69.8614
37.050,72.9064
37.060,66.3262
37.070,65.7684
37.080,72.6425
37.090,74.3852
37.100,73.9541
37.110,73.5066
37.120,75.1135
37.130,72.7719
37.140,70.0496
37.150,72.4849
37.160,68.7311
37.170,66.1120
37.180,72.6764
37.190,66.5173
37.200,76.2576
37.210,72.9215
37.220,73.4341
37.230,77.7381
37.240,70.9165
37.250,79.3110
37.260,77.4889
37.270,70.0018
37.280,79.9259
37.290,71.7601
37.300,81.0725
37.310,72.1110
37.320,79.8723
37.330,75.5887
37.340,73.6137
37.350,69.9987
37.360,74.2158
37.370,72.1429
37.380,77.4584
37.390,78.6980
37.400,73.0054
37.410,77.9228
37.420,81.6416
37.430,75.8434
37.440,77.3347
37.450,74.1743
37.460,72.2079
37.470,70.7955
37.480,81.6876
37.490,79.5459
37.500,72.9246
37.510,73.5634
37.520,81.3233
37.530,79.6928
37.540,71.1966
37.550,73.8475
37.560,78.6550
37.570,76.1612
37.580,78.9452
37.590,71.9325
37.600,70.5374
37.610,71.6455
37.620,76.6136
37.630,82.0778
37.640,81.5608
37.650,77.0266
37.660,74.6589
37.670,70.3820
37.680,75.5882
37.690,75.5346
37.700,75.1375
37.710,73.6422
37.720,79.5433
37.730,70.6298
37.740,68.6714
37.750,67.9082
37.760,71.5396
37.770,74.4698
37.780,68.5350
37.790,78.0595
37.800,72.2383
37.810,70.4170
37.820,75.3713
37.830,70.7689
37.840,73.8803
37.850,74.4963
37.860,67.4608
37.870,70.1688
37.880,74.1184
37.890,73.0617
37.900,72.9699
37.910,73.2704
37.920,66.3922
37.930,76.0635
37.940,76.2504
37.950,64.5251
37.960,75.3734
37.970,63.0179
37.980,63.2393
37.990,67.2099
38.000,72.7435
38.010,71.7477
38.020,63.2693
38.030,65.1602
38.040,72.1453
38.050,70.7274
38.060,65.3769
38.070,61.1960
38.080,71.3937
38.090,66.1915
38.100,60.9638
38.110,69.0211
38.120,63.7239
38.130,68.1107
38.140,71.6491
38.150,61.0920
38.160,73.0288
38.170,72.3311
38.180,73.0402
38.190,63.9181
38.200,62.3826
38.210,63.5331
38.220,72.5329
38.230,64.6906
38.240,72.9086
38.250,61.4773
38.260,60.6061
38.270,64.7948
38.280,60.8354
38.290,63.6519
38.300,71.2224
38.310,68.7091
38.320,67.9480
38.330,71.6582
38.340,63.0138
38.350,71.8895
38.360,63.4623
38.370,69.1501
38.380,66.1765
38.390,69.3509
38.400,64.7913
38.410,70.9324
38.420,71.9543
38.430,69.2986
38.440,75.4787
38.450,69.0034
38.460,67.8608
38.470,70.7266
38.480,64.8785
38.490,70.2962
38.500,66.7044
38.510,68.5699
38.520,71.4447
38.530,67.4400
38.540,73.1936
38.550,76.3122
38.560,71.8623
38.570,74.0935
38.580,77.8280
38.590,78.1282
38.600,73.1757
38.610,75.5590
38.620,70.5075
38.630,78.2774
38.640,70.9701
38.650,75.5270
38.660,74.1537
38.670,72.7692
38.680,73.2302
38.690,79.0391
38.700,73.9196
38.710,71.3251
38.720,74.5541
38.730,75.0356
38.740,80.1642
38.750,80.0902
38.760,78.5422
38.770,81.9676
38.780,70.3745
38.790,77.8139
38.800,79.4912
38.810,77.5495
38.820,70.3400
38.830,81.5054
38.840,77.3627
38.850,74.0772
38.860,72.4789
38.870,71.6096
38.880,82.3588
38.890,79.3192
38.900,78.5190
38.910,77.8393
38.920,73.9753
38.930,77.4504
38.940,76.0531
38.950,75.9803
38.960,76.5846
38.970,80.6105
38.980,76.8872
38.990,81.9776
39.000,73.6681
39.010,78.0703
39.020,80.7200
39.030,73.2108
39.040,72.3214
39.050,75.2748
39.060,82.5723
39.070,73.8424
39.080,75.1743
39.090,73.4052
39.100,78.2031
39.110,75.9831
39.120,81.6355
39.130,80.2056
39.140,70.6650
39.150,74.2170
39.160,68.5770
39.170,74.9174
39.180,76.4683
39.190,68.7972
39.200,68.7601
39.210,76.3056
39.220,69.2657
39.230,74.5511
39.240,68.2139
39.250,68.1629
39.260,71.8730
39.270,74.0278
39.280,73.5223
39.290,78.0310
39.300,67.8625
39.310,71.1931
39.320,77.0639
39.330,73.2628
39.340,76.7131
39.350,70.6471
39.360,74.9193
39.370,68.6635
39.380,66.3666
39.390,74.1827
39.400,71.4607
39.410,65.0147
39.420,71.0182
39.430,69.8159
39.440,68.7055
39.450,69.3842
39.460,64.6352
39.470,68.1948
39.480,69.9868
39.490,64.9958
39.500,66.3996
39.510,62.0671
39.520,69.6813
39.530,64.9979
39.540,61.1212
39.550,63.9529
39.560,65.1802
39.570,70.2235
39.580,64.3143
39.590,64.5955
39.600,72.8158
39.610,70.2720
39.620,69.5923
39.630,72.9162
39.640,65.9922
39.650,71.1676
39.660,67.4714
39.670,71.0847
39.680,72.9073
39.690,64.4567
39.700,61.6558
39.710,61.2992
39.720,64.2194
39.730,63.1140
39.740,68.4763
39.750,62.2203
39.760,61.5591
39.770,66.7572
39.780,70.6735
39.790,69.3346
39.800,62.2075
39.810,72.8626
39.820,69.7858
39.830,63.2435
39.840,64.3452
39.850,63.0514
39.860,65.9055
39.870,70.0469
39.880,68.9092
39.890,66.7031
39.900,70.5612
39.910,72.1445
39.920,67.4464
39.930,67.3930
39.940,75.0798
39.950,74.5161
39.960,66.6415
39.970,74.3192
39.980,74.8885
39.990,71.0075
40.000,71.0218
40.010,76.0045
40.020,70.9269
40.030,77.7484
40.040,69.5908
40.050,73.5114
40.060,67.6650
40.070,77.0441
40.080,75.9227
40.090,75.2402
40.100,79.9321
40.110,71.4103
40.120,76.0625
40.130,69.9707
40.140,70.9986
40.150,80.3322
40.160,70.6509
40.170,79.4957
40.180,80.6298
40.190,72.9408
40.200,72.4209
40.210,75.1345
40.220,70.9206
40.230,71.8055
40.240,82.9882
40.250,80.5674
40.260,73.7384
40.270,76.2566
40.280,79.0103
40.290,80.1174
40.300,72.9404
40.310,83.8363
40.320,78.5562
40.330,77.7701
40.340,75.2800
40.350,71.3643
40.360,76.3524
40.370,71.2718
40.380,80.3339
40.390,72.4177
40.400,74.6247
40.410,75.0260
40.420,80.4413
40.430,76.7967
40.440,79.2254
40.450,79.6865
40.460,73.3274
40.470,74.0083
40.480,75.5335
40.490,71.3639
40.500,79.6562
40.510,82.4913
40.520,70.7415
40.530,80.0309
40.540,79.4910
40.550,78.6226
40.560,76.7006
40.570,75.6954
40.580,72.0116
40.590,69.8402
40.600,69.2809
40.610,74.1395
40.620,79.2481
40.630,72.2461
40.640,69.5871
40.650,77.5349
40.660,78.6478
40.670,73.7975
40.680,75.0889
40.690,69.6442
40.700,73.9127
40.710,78.0687
40.720,74.9993
40.730,71.8346
40.740,67.5914
40.750,76.3669
40.760,68.9805
40.770,64.9750
40.780,65.0629
40.790,71.1571
40.800,68.4834
40.810,68.1433
40.820,70.8279
40.830,74.2713
40.840,72.8497
40.850,68.1144
40.860,68.4128
40.870,64.7689
40.880,72.3744
40.890,67.9747
40.900,65.6942
40.910,64.2514
40.920,72.2507
40.930,64.5613
40.940,65.3561
40.950,63.0412
40.960,65.9927
40.970,72.9723
40.980,68.0877
40.990,68.2532
41.000,69.0530
41.010,72.3499
41.020,61.9667
41.030,72.0536
41.040,70.6822
41.050,71.8619
41.060,70.4625
41.070,73.2443
41.080,73.6395
41.090,63.4849
41.100,72.4224
41.110,61.9424
41.120,73.1108
41.130,72.3512
41.140,62.1426
41.150,64.5126
41.160,67.0702
41.170,66.6973
41.180,62.0634
41.190,64.4974
41.200,62.6400
41.210,66.9999
41.220,72.4424
41.230,71.6603
41.240,70.2404
41.250,65.6522
41.260,74.9974
41.270,65.1398
41.280,70.3926
41.290,69.6088
41.300,67.7806
41.310,71.3194
41.320,65.6537
41.330,64.8003
41.340,70.0619
41.350,74.3375
41.360,70.8235
41.370,75.3796
41.380,66.5113
41.390,72.6913
41.400,65.7907
41.410,75.0114
41.420,71.6074
41.430,73.1774
41.440,74.4572
41.450,67.7485
41.460,72.4495
41.470,67.5043
41.480,74.1403
41.490,73.4519
41.500,72.0648
41.510,70.6040
41.520,75.7909
41.530,74.5902
41.540,75.8255
41.550,70.8673
41.560,70.9325
41.570,69.4300
41.580,80.3535
41.590,70.0241
41.600,75.4730
41.610,79.0729
41.620,70.9896
41.630,80.5008
41.640,79.5278
41.650,78.6467
41.660,76.9775
41.670,79.6384
41.680,74.5029
41.690,80.1931
41.700,71.6392
41.710,81.8875
41.720,78.7895
41.730,71.8359
41.740,71.5697
41.750,78.0770
41.760,78.6621
41.770,82.2295
41.780,74.2274
41.790,74.4028
41.800,78.0188
41.810,74.3871
41.820,72.1957
41.830,84.1356
41.840,74.9727
41.850,83.7090
41.860,78.2305
41.870,73.3126
41.880,80.4257
41.890,77.3633
41.900,81.3204
41.910,76.2023
41.920,76.3801
41.930,72.9207
41.940,75.8990
41.950,76.3684
41.960,79.1868
41.970,74.7694
41.980,69.7920
41.990,70.4835
42.000,74.8899
42.010,71.9539
42.020,79.1128
42.030,77.8540
42.040,79.6967
42.050,77.8721
42.060,74.0663
42.070,71.5177
42.080,78.0993
42.090,79.6585
42.100,74.1586
42.110,70.6048
42.120,71.9972
42.130,76.5528
42.140,69.3371
42.150,71.1355
42.160,67.7463
42.170,74.4462
42.180,73.4741
42.190,71.0345
42.200,70.3806
42.210,76.0608
42.220,77.0445
42.230,68.1856
42.240,72.9170
42.250,75.9142
42.260,64.3885
42.270,68.5998
42.280,64.8370
42.290,63.9383
42.300,73.4145
42.310,71.3731
42.320,71.9153
42.330,69.8440
42.340,74.5475
42.350,62.2500
42.360,62.7144
42.370,66.5081
42.380,68.0810
42.390,65.2382
42.400,66.9270
42.410,63.2049
42.420,74.0623
42.430,63.3305
42.440,73.8410
42.450,73.0295
42.460,69.3668
42.470,68.3595
42.480,64.0923
42.490,72.2995
42.500,61.3930
42.510,73.3864
42.520,71.7364
42.530,64.2361
42.540,71.2604
42.550,69.2402
42.560,68.5594
42.570,65.7044
42.580,67.7511
42.590,63.0900
42.600,67.5791
42.610,62.8096
42.620,73.4338
42.630,62.8089
42.640,64.3624
42.650,64.6501
42.660,63.4697
42.670,71.9871
42.680,63.5477
42.690,63.7830
42.700,67.2587
42.710,68.1450
42.720,72.5519
42.730,65.1676
42.740,71.3331
42.750,66.0340
42.760,73.6371
42.770,73.7718
42.780,68.4434
42.790,67.4482
42.800,67.4635
42.810,70.1824
42.820,67.7267
42.830,70.2593
42.840,68.2537
42.850,67.0373
42.860,73.9473
42.870,67.5008
42.880,79.6172
42.890,70.6086
42.900,78.4405
42.910,79.4756
42.920,78.1916
42.930,70.6448
42.940,71.3738
42.950,81.0069
42.960,77.0800
42.970,76.6997
42.980,71.8231
42.990,72.2509
43.000,73.2275
43.010,70.2556
43.020,73.5978
43.030,72.7621
43.040,71.2761
43.050,81.2567
43.060,71.3541
43.070,79.7076
43.080,83.4280
43.090,80.6684
43.100,75.8741
43.110,72.9656
43.120,81.9933
43.130,81.7389
43.140,82.6037
43.150,75.6688
43.160,73.1770
43.170,78.5910
43.180,81.1189
43.190,77.6273
43.200,76.5216
43.210,79.6896
43.220,79.5135
43.230,80.6022
43.240,76.1390
43.250,83.7720
43.260,74.6617
43.270,76.2089
43.280,80.3166
43.290,82.4341
43.300,77.3560
43.310,80.0756
43.320,82.1256
43.330,72.5451
43.340,82.8957
43.350,78.4853
43.360,76.0581
43.370,78.5301
43.380,78.7584
43.390,71.4963
43.400,76.7583
43.410,75.4880
43.420,78.4906
43.430,74.7031
43.440,70.6659
43.450,73.6192
43.460,78.9157
43.470,72.6868
43.480,75.4628
43.490,71.4202
43.500,69.7726
43.510,73.8748
43.520,78.7360
43.530,69.1579
43.540,68.7682
43.550,68.9210
43.560,69.3731
43.570,73.6135
43.580,69.6679
43.590,66.3294
43.600,72.0858
43.610,66.6398
43.620,71.2020
43.630,77.2735
43.640,74.7382
43.650,75.2601
43.660,74.7155
43.670,66.2748
43.680,72.5798
43.690,68.5519
43.700,71.3186
43.710,73.0686
43.720,74.0599
43.730,66.1140
43.740,75.2768
43.750,69.9481
43.760,65.7529
43.770,74.6839
43.780,64.2653
43.790,62.6433
43.800,71.2005
43.810,72.0446
43.820,67.1131
43.830,63.6879
43.840,64.4842
43.850,70.5818
43.860,64.7210
43.870,65.8506
43.880,70.0574
43.890,69.8884
43.900,70.0460
43.910,66.0101
43.920,74.0268
43.930,69.7608
43.940,62.1414
43.950,65.9736
43.960,67.7227
43.970,63.2245
43.980,68.1997
43.990,68.5920
44.000,72.6273
44.010,72.6097
44.020,67.4772
44.030,68.6249
44.040,67.2764
44.050,71.4284
44.060,62.9617
44.070,63.7448
44.080,69.5192
44.090,74.5034
44.100,75.3617
44.110,65.5098
44.120,64.8697
44.130,69.1545
44.140,65.1627
44.150,68.7752
44.160,71.1473
44.170,65.3441
44.180,76.5126
44.190,74.4516
44.200,69.0190
44.210,69.0482
44.220,77.6085
44.230,73.8954
44.240,71.5342
44.250,68.7258
44.260,68.8007
44.270,71.6725
44.280,69.5857
44.290,79.0570
44.300,67.4192
44.310,78.0182
44.320,79.3774
44.330,70.1751
44.340,80.4966
44.350,76.1818
44.360,76.7227
44.370,68.5449
44.380,77.9924
44.390,81.3991
44.400,76.0088
44.410,79.3202
44.420,75.0578
44.430,76.8586
44.440,75.7945
44.450,75.5770
44.460,79.5578
44.470,79.3787
44.480,79.7347
44.490,74.6521
44.500,75.3945
44.510,83.5724
44.520,78.4274
44.530,76.1891
44.540,72.3400
44.550,84.0399
44.560,71.6988
44.570,75.9829
44.580,78.5323
44.590,78.1558
44.600,73.7337
44.610,73.8959
44.620,73.6081
44.630,81.7422
44.640,76.8321
44.650,84.5517
44.660,81.5063
44.670,79.0901
44.680,82.6863
44.690,80.8283
44.700,83.1073
44.710,83.3028
44.720,82.8661
44.730,75.4641
44.740,72.5673
44.750,79.9986
44.760,80.6145
44.770,73.4474
44.780,81.3569
44.790,80.6986
44.800,73.6324
44.810,77.3281
44.820,75.9886
44.830,71.0447
44.840,71.0932
44.850,73.2260
44.860,72.3625
44.870,79.8719
44.880,75.6053
44.890,74.8990
44.900,79.2212
44.910,76.0475
44.920,73.5829
44.930,73.1319
44.940,76.3296
44.950,72.1372
44.960,69.9717
44.970,78.0972
44.980,78.1078
44.990,69.0711
45.000,72.8738
45.010,71.5181
45.020,71.6938
45.030,75.8558
45.040,83.4115
45.050,79.7369
45.060,73.2438
45.070,79.5945
45.080,87.9027
45.090,77.2611
45.100,89.9375
45.110,88.4158
45.120,83.2588
45.130,88.3540
45.140,89.8462
45.150,85.3003
45.160,94.1406
45.170,92.7416
45.180,96.7616
45.190,88.2249
45.200,97.8515
45.210,100.0480
45.220,91.4345
45.230,96.8192
45.240,94.6400
45.250,105.4432
45.260,106.1684
45.270,106.1338
45.280,108.5406
45.290,110.3196
45.300,106.1547
45.310,110.2552
45.320,112.1519
45.330,106.1476
45.340,105.8444
45.350,110.5416
45.360,110.3364
45.370,110.5110
45.380,116.4849
45.390,115.8309
45.400,113.5604
45.410,114.0478
45.420,115.0695
45.430,116.4152
45.440,122.5416
45.450,128.5788
45.460,124.4306
45.470,131.2371
45.480,122.8340
45.490,127.3604
45.500,132.6389
45.510,132.2986
45.520,131.3698
45.530,135.5975
45.540,126.3308
45.550,137.5831
45.560,131.2285
45.570,140.9615
45.580,137.1665
45.590,137.8716
45.600,141.1074
45.610,140.1676
45.620,142.5170
45.630,144.4021
45.640,138.2849
45.650,141.1244
45.660,140.4616
45.670,149.6579
45.680,147.0260
45.690,149.5052
45.700,149.1418
45.710,151.7897
45.720,151.8849
45.730,153.6165
45.740,155.1444
45.750,157.0108
45.760,160.6753
45.770,158.9984
45.780,162.7181
45.790,164.9014
45.800,167.6374
45.810,165.9442
45.820,161.7707
45.830,164.7017
45.840,166.8870
45.850,168.2172
45.860,171.2674
45.870,170.4998
45.880,167.0175
45.890,176.3796
45.900,173.1625
45.910,171.7019
45.920,180.2071
45.930,175.3408
45.940,177.2167
45.950,179.7979
45.960,173.2413
45.970,185.4357
45.980,179.8358
45.990,178.6689
46.000,179.9976
46.010,185.3693
46.020,178.7618
46.030,177.7735
46.040,185.0462
46.050,177.4159
46.060,188.7234
46.070,188.6892
46.080,179.1102
46.090,187.7366
46.100,184.8102
46.110,189.0564
46.120,178.6954
46.130,187.5548
46.140,177.9644
46.150,179.4410
46.160,177.0035
46.170,176.8872
46.180,184.5208
46.190,189.6361
46.200,187.4872
46.210,187.7579
46.220,187.2550
46.230,188.6052
46.240,183.2114
46.250,189.4295
46.260,177.7972
46.270,183.0579
46.280,182.0420
46.290,182.1486
46.300,181.9741
46.310,187.0729
46.320,180.7969
46.330,187.8845
46.340,188.1096
46.350,182.4204
46.360,185.2063
46.370,181.3561
46.380,189.1996
46.390,188.0516
46.400,184.7158
46.410,189.6695
46.420,181.3666
46.430,182.5762
46.440,184.8122
46.450,177.1346
46.460,188.4605
46.470,177.5099
46.480,178.1412
46.490,178.5964
46.500,179.1180
46.510,179.0441
46.520,182.5377
46.530,185.1279
46.540,177.5377
46.550,177.0923
46.560,179.6529
46.570,187.5992
46.580,181.7141
46.590,178.5511
46.600,186.9074
46.610,184.6973
46.620,185.7965
46.630,179.9485
46.640,178.7092
46.650,179.4091
46.660,187.8941
46.670,184.7885
46.680,182.9892
46.690,182.9951
46.700,188.1153
46.710,185.0810
46.720,177.6352
46.730,188.6666
46.740,189.0401
46.750,177.3438
46.760,177.3650
46.770,186.7926
46.780,182.7913
46.790,186.0322
46.800,181.7417
46.810,186.8816
46.820,181.0746
46.830,186.7764
46.840,178.7505
46.850,185.6539
46.860,187.1484
46.870,179.8886
46.880,179.1493
46.890,188.6540
46.900,184.0510
46.910,179.7258
46.920,179.8297
46.930,186.8282
46.940,186.1391
46.950,183.7068
46.960,188.3019
46.970,181.6582
46.980,181.4914
46.990,183.2867
47.000,74.1498
47.010,68.2943
47.020,70.9669
47.030,74.4817
47.040,74.5522
47.050,68.3958
47.060,69.4558
47.070,69.4398
47.080,71.7209
47.090,74.5367
47.100,72.9564
47.110,73.0223
47.120,68.0762
47.130,78.9529
47.140,73.9931
47.150,72.4917
47.160,73.0337
47.170,68.3157
47.180,75.6078
47.190,74.8766
47.200,76.5310
47.210,74.9643
47.220,69.8237
47.230,75.9253
47.240,72.0827
47.250,80.5322
47.260,77.1368
47.270,70.4521
47.280,73.6469
47.290,77.0559
47.300,73.8053
47.310,74.7327
47.320,71.7614
47.330,79.1623
47.340,74.2175
47.350,73.0177
47.360,77.5476
47.370,72.2276
47.380,72.0197
47.390,83.9344
47.400,72.3248
47.410,76.6014
47.420,82.1111
47.430,78.7763
47.440,80.0000
47.450,80.5678
47.460,72.7933
47.470,84.1387
47.480,82.3907
47.490,82.4356
47.500,72.7326
47.510,77.0070
47.520,74.5207
47.530,74.6506
47.540,76.0535
47.550,80.9654
47.560,78.9624
47.570,84.9397
47.580,80.0575
47.590,72.3482
47.600,82.0456
47.610,80.7618
47.620,73.7511
47.630,81.7432
47.640,83.5356
47.650,80.5508
47.660,74.5980
47.670,77.3687
47.680,76.6868
47.690,82.0006
47.700,79.3768
47.710,82.5752
47.720,71.5599
47.730,74.7501
47.740,78.8773
47.750,79.7879
47.760,80.5352
47.770,80.6110
47.780,81.8301
47.790,69.1701
47.800,69.1673
47.810,74.6285
47.820,69.9851
47.830,72.1097
47.840,73.5337
47.850,71.4526
47.860,67.1519
47.870,78.9941
47.880,67.8574
47.890,76.6409
47.900,78.9735
47.910,76.2485
47.920,76.1226
47.930,66.4546
47.940,69.2107
47.950,66.8340
47.960,69.4868
47.970,74.4002
47.980,71.7313
47.990,75.5127
48.000,67.4989
48.010,75.0710
48.020,73.7065
48.030,73.8240
48.040,73.7584
48.050,70.0947
48.060,70.6088
48.070,75.4846
48.080,73.7056
48.090,69.1219
48.100,73.5885
48.110,65.8864
48.120,72.5966
48.130,63.8222
48.140,71.5077
48.150,64.6148
48.160,63.3985
48.170,70.3635
48.180,62.6274
48.190,70.3927
48.200,64.3560
48.210,68.5762
48.220,70.7397
48.230,63.3324
48.240,71.6439
48.250,63.8789
48.260,71.0504
48.270,68.0022
48.280,65.3841
48.290,64.7618
48.300,74.4038
48.310,73.7379
48.320,75.1407
48.330,70.4394
48.340,65.3000
48.350,65.4666
48.360,71.2714
48.370,70.7631
48.380,70.3045
48.390,65.3801
48.400,70.2013
48.410,69.6688
48.420,64.0915
48.430,68.9231
48.440,70.9968
48.450,74.9561
48.460,74.8678
48.470,74.3035
48.480,73.1680
48.490,73.4174
48.500,67.5846
48.510,67.1952
48.520,72.2915
48.530,70.8606
48.540,76.8990
48.550,77.8389
48.560,76.7406
48.570,79.7261
48.580,69.0823
48.590,70.0111
48.600,77.2993
48.610,74.4952
48.620,68.8970
48.630,72.2810
48.640,77.9426
48.650,81.2672
48.660,79.9898
48.670,75.9798
48.680,70.6340
48.690,80.3319
48.700,76.3923
48.710,74.0486
48.720,74.8179
48.730,77.8560
48.740,79.4767
48.750,81.7498
48.760,72.1194
48.770,72.1871
48.780,77.8283
48.790,82.2715
48.800,81.8117
48.810,78.5879
48.820,73.1303
48.830,80.7643
48.840,72.3026
48.850,79.2620
48.860,84.1381
48.870,82.8365
48.880,74.0430
48.890,79.9690
48.900,73.2513
48.910,78.0947
48.920,77.6739
48.930,81.7186
48.940,84.3671
48.950,82.4131
48.960,76.5266
48.970,78.0600
48.980,78.3744
48.990,83.5081
49.000,73.6639
49.010,73.2330
49.020,79.8560
49.030,76.7911
49.040,77.2247
49.050,79.7486
49.060,73.4403
49.070,82.0580
49.080,74.9508
49.090,73.8708
49.100,81.6156
49.110,75.3240
49.120,81.6498
49.130,71.5209
49.140,78.9675
49.150,80.5430
49.160,79.7342
49.170,71.1527
49.180,80.4668
49.190,72.4230
49.200,76.5332
49.210,81.9293
49.220,78.7327
49.230,74.5143
49.240,73.2167
49.250,75.5805
49.260,74.7032
49.270,72.8512
49.280,79.2488
49.290,72.0785
49.300,75.2684
49.310,70.2370
49.320,78.2934
49.330,68.1008
49.340,79.0289
49.350,71.5235
49.360,73.4659
49.370,65.9016
49.380,76.6323
49.390,66.2626
49.400,67.3738
49.410,68.6736
49.420,72.4214
49.430,66.0061
49.440,70.5867
49.450,73.4361
49.460,76.0261
49.470,67.6274
49.480,64.0303
49.490,67.9424
49.500,64.1118
49.510,67.2716
49.520,71.5110
49.530,65.4168
49.540,72.6190
49.550,68.5682
49.560,75.0375
49.570,71.8837
49.580,63.4687
49.590,64.7761
49.600,74.0471
49.610,70.9171
49.620,62.7381
49.630,65.0619
49.640,64.3200
49.650,67.8949
49.660,71.0686
49.670,67.5005
49.680,74.2071
49.690,71.5115
49.700,68.5668
49.710,65.3439
49.720,72.3524
49.730,70.1824
49.740,65.7956
49.750,64.9219
49.760,64.1380
49.770,73.7156
49.780,74.4344
49.790,69.3412
49.800,64.2438
49.810,63.8817
49.820,74.2671
49.830,67.0376
49.840,64.5892
49.850,76.1950
49.860,70.6617
49.870,74.9218
49.880,74.3817
49.890,77.4816
49.900,66.5409
49.910,74.5163
49.920,76.2154
49.930,70.2857
49.940,73.8617
49.950,66.6390
49.960,79.5943
49.970,78.8531
49.980,72.8841
49.990,79.8287
50.000,77.4898
50.010,75.1663
50.020,69.6723
50.030,71.3123
50.040,73.8353
50.050,73.4245
50.060,72.1855
50.070,79.4095
50.080,75.7372
50.090,72.5487
50.100,80.3053
50.110,78.2727
50.120,73.1644
50.130,72.3400
50.140,74.6597
50.150,81.8010
50.160,79.0402
50.170,76.4755
50.180,74.9865
50.190,81.8648
50.200,83.7231
50.210,75.6230
50.220,72.9629
50.230,84.8143
50.240,74.1627
50.250,82.9083
50.260,83.0184
50.270,75.9993
50.280,84.2057
50.290,84.2193
50.300,83.1401
50.310,79.9308
50.320,77.7740
50.330,80.2072
50.340,82.1487
50.350,83.9709
50.360,81.8425
50.370,79.6494
50.380,74.8439
50.390,84.8754
50.400,77.1663
50.410,84.6295
50.420,77.7525
50.430,75.2240
50.440,74.3448
50.450,79.8072
50.460,84.8579
50.470,76.5305
50.480,82.2788
50.490,82.2546
50.500,74.0380
50.510,79.2407
50.520,84.1169
50.530,76.4497
50.540,71.5809
50.550,84.0440
50.560,79.4166
50.570,79.5522
50.580,79.1189
50.590,82.8404
50.600,82.5687
50.610,72.3155
50.620,75.2567
50.630,75.2410
50.640,74.6427
50.650,80.3582
50.660,72.8959
50.670,78.3741
50.680,76.1764
50.690,72.6247
50.700,71.1891
50.710,74.8781
50.720,76.5896
50.730,67.3531
50.740,78.5211
50.750,71.4555
50.760,78.8198
50.770,66.5338
50.780,66.5985
50.790,78.7548
50.800,78.0389
50.810,74.0912
50.820,73.6469
50.830,67.4908
50.840,77.8625
50.850,77.2008
50.860,69.7796
50.870,70.2091
50.880,67.2692
50.890,71.9562
50.900,64.3300
50.910,76.0526
50.920,68.7751
50.930,72.6824
50.940,65.4739
50.950,68.6025
50.960,70.6366
50.970,70.8372
50.980,70.8987
50.990,63.2829
51.000,69.3611
51.010,64.5996
51.020,70.7968
51.030,74.2153
51.040,67.7731
51.050,68.9522
51.060,69.2750
51.070,72.6812
51.080,74.5606
51.090,64.2746
51.100,68.8316
51.110,72.0136
51.120,64.0047
51.130,62.9728
51.140,72.8986
51.150,73.5726
51.160,70.7560
51.170,66.8608
51.180,70.3759
51.190,64.8813
51.200,71.1032
51.210,67.5498
51.220,64.0393
51.230,73.2461
51.240,72.8568
51.250,70.0526
51.260,75.6466
51.270,66.3267
51.280,65.9801
51.290,71.7211
51.300,66.2225
51.310,72.8792
51.320,70.1666
51.330,70.6114
51.340,70.5357
51.350,75.1999
51.360,69.9264
51.370,71.7407
51.380,73.6046
51.390,67.8993
51.400,77.6466
51.410,69.9446
51.420,79.9697
51.430,80.0974
51.440,71.1997
51.450,72.8570
51.460,75.5702
51.470,70.2141
51.480,81.6297
51.490,77.0915
51.500,76.2023
51.510,78.3132
51.520,70.5988
51.530,81.8499
51.540,80.9875
51.550,72.1680
51.560,80.1929
51.570,76.7658
51.580,79.0226
51.590,82.7658
51.600,71.9208
51.610,73.4038
51.620,72.4548
51.630,84.4631
51.640,77.0488
51.650,82.8983
51.660,75.7612
51.670,83.7834
51.680,84.2978
51.690,81.6884
51.700,74.9232
51.710,85.7168
51.720,84.7233
51.730,85.1067
51.740,78.9821
51.750,73.1308
51.760,85.2433
51.770,77.8579
51.780,84.6967
51.790,84.9112
51.800,81.1263
51.810,78.6824
51.820,75.2014
51.830,76.6321
51.840,83.5655
51.850,83.5508
51.860,84.7585
51.870,77.8867
51.880,73.5845
51.890,83.9561
51.900,77.5515
51.910,77.9029
51.920,78.5731
51.930,83.1071
51.940,77.2318
51.950,80.7174
51.960,74.9457
51.970,73.0706
51.980,78.1528
51.990,73.3402
52.000,75.9812
52.010,72.1000
52.020,73.4465
52.030,80.1753
52.040,82.8638
52.050,75.6653
52.060,81.4904
52.070,76.2553
52.080,76.6698
52.090,70.2756
52.100,74.0151
52.110,74.9126
52.120,70.5373
52.130,69.2949
52.140,80.1009
52.150,78.0198
52.160,68.0880
52.170,74.5433
52.180,75.6606
52.190,78.3540
52.200,76.8491
52.210,68.2926
52.220,72.7146
52.230,67.3667
52.240,70.7076
52.250,72.1365
52.260,77.9558
52.270,71.9620
52.280,69.9757
52.290,70.8690
52.300,70.6366
52.310,74.8863
52.320,69.4517
52.330,74.5261
52.340,66.4297
52.350,69.4964
52.360,64.8665
52.370,76.4616
52.380,74.0485
52.390,73.1011
52.400,69.1126
52.410,73.6890
52.420,75.3703
52.430,66.2590
52.440,66.7341
52.450,65.5893
52.460,65.8974
52.470,71.3671
52.480,64.4673
52.490,68.4003
52.500,74.3831
52.510,71.4357
52.520,74.0488
52.530,64.8997
52.540,75.6571
52.550,74.9592
52.560,71.8352
52.570,71.1827
52.580,74.2993
52.590,75.7248
52.600,63.4855
52.610,66.8793
52.620,71.9140
52.630,65.8473
52.640,72.7399
52.650,64.8478
52.660,67.2913
52.670,67.3790
52.680,73.4056
52.690,65.7587
52.700,69.9256
52.710,70.3789
52.720,74.0298
52.730,72.8692
52.740,69.6406
52.750,65.8264
52.760,75.0313
52.770,70.2120
52.780,76.8847
52.790,76.2395
52.800,74.2047
52.810,67.6810
52.820,69.9698
52.830,78.9671
52.840,73.6056
52.850,79.9458
52.860,69.0896
52.870,68.7083
52.880,73.2858
52.890,70.8622
52.900,72.0365
52.910,77.0865
52.920,80.1851
52.930,72.2724
52.940,77.8855
52.950,77.2761
52.960,81.8685
52.970,76.6395
52.980,75.8684
52.990,81.7684
53.000,79.4433
53.010,74.1678
53.020,71.6829
53.030,76.6253
53.040,74.4017
53.050,80.7748
53.060,76.0252
53.070,73.1712
53.080,78.4707
53.090,79.7525
53.100,78.1596
53.110,74.2222
53.120,75.4517
53.130,76.4926
53.140,73.2260
53.150,85.6993
53.160,78.9989
53.170,76.2169
53.180,83.1717
53.190,78.6363
53.200,75.2838
53.210,77.2260
53.220,82.2226
53.230,74.7759
53.240,76.2427
53.250,82.6927
53.260,82.1633
53.270,81.9696
53.280,83.7789
53.290,76.1711
53.300,77.3808
53.310,73.1141
53.320,85.5332
53.330,81.7319
53.340,78.5556
53.350,72.5582
53.360,78.9928
53.370,78.3388
53.380,79.1323
53.390,76.0746
53.400,73.8550
53.410,83.5808
53.420,84.0506
53.430,72.8680
53.440,82.1617
53.450,77.2552
53.460,71.1012
53.470,75.2375
53.480,82.6058
53.490,77.5613
53.500,70.1122
53.510,77.4930
53.520,77.3136
53.530,81.8905
53.540,70.1604
53.550,75.5401
53.560,79.5541
53.570,69.7149
53.580,75.2446
53.590,68.3447
53.600,68.8947
53.610,71.8784
53.620,68.0167
53.630,68.4234
53.640,79.5968
53.650,68.3671
53.660,69.4711
53.670,75.1966
53.680,69.1543
53.690,73.5342
53.700,70.0116
53.710,74.1975
53.720,70.1943
53.730,75.0635
53.740,68.7110
53.750,70.8423
53.760,77.2226
53.770,74.5846
53.780,64.3428
53.790,66.9460
53.800,73.8405
53.810,65.7653
53.820,68.3634
53.830,70.2797
53.840,75.6306
53.850,64.1587
53.860,66.4190
53.870,70.0559
53.880,64.2147
53.890,70.3364
53.900,74.3522
53.910,69.3940
53.920,66.2051
53.930,63.5406
53.940,75.7897
53.950,67.3503
53.960,65.9304
53.970,63.4129
53.980,73.0899
53.990,75.3965
54.000,68.0602
54.010,63.4802
54.020,72.5265
54.030,64.8371
54.040,64.5687
54.050,74.7498
54.060,73.4858
54.070,76.6389
54.080,68.8222
54.090,66.7025
54.100,69.7511
54.110,68.8997
54.120,64.9284
54.130,71.8989
54.140,69.3105
54.150,66.3153
54.160,69.6215
54.170,78.6825
54.180,75.8882
54.190,74.6391
54.200,72.4590
54.210,72.0859
54.220,70.5698
54.230,79.1435
54.240,71.3312
54.250,77.1964
54.260,80.4787
54.270,69.4718
54.280,76.4308
54.290,74.4896
54.300,80.7722
54.310,70.2120
54.320,78.3480
54.330,79.6485
54.340,70.1670
54.350,81.0306
54.360,71.9062
54.370,72.4863
54.380,77.5292
54.390,80.3897
54.400,71.2813
54.410,83.1607
54.420,79.2239
54.430,81.3589
54.440,76.1697
54.450,80.5274
54.460,80.8537
54.470,80.9930
54.480,82.7423
54.490,73.1976
54.500,80.5181
54.510,74.0491
54.520,81.9502
54.530,73.3246
54.540,80.1780
54.550,84.7731
54.560,74.9232
54.570,85.4568
54.580,77.3652
54.590,73.5188
54.600,82.7859
54.610,85.3652
54.620,81.9598
54.630,79.1682
54.640,83.6444
54.650,79.4331
54.660,79.7440
54.670,84.3817
54.680,85.3019
54.690,75.5168
54.700,80.1316
54.710,85.0658
54.720,75.0053
54.730,74.6323
54.740,78.6019
54.750,83.1181
54.760,85.3298
54.770,81.9299
54.780,74.0989
54.790,74.5383
54.800,80.0359
54.810,82.2089
54.820,73.1287
54.830,79.6248
54.840,80.6883
54.850,71.8960
54.860,82.3606
54.870,83.5434
54.880,80.8196
54.890,71.7766
54.900,80.6332
54.910,79.6924
54.920,82.5382
54.930,78.7770
54.940,72.2738
54.950,74.4174
54.960,77.6845
54.970,75.8293
54.980,79.0185
54.990,72.3110
55.000,75.5670
55.010,70.3925
55.020,78.0797
55.030,78.6891
55.040,78.9991
55.050,69.6133
55.060,77.1356
55.070,68.0139
55.080,78.0127
55.090,71.2946
55.100,71.7075
55.110,67.8991
55.120,72.5010
55.130,77.2955
55.140,66.3521
55.150,66.1244
55.160,70.3031
55.170,73.6395
55.180,76.9349
55.190,65.9010
55.200,76.4515
55.210,77.1052
55.220,75.1929
55.230,67.0499
55.240,70.9474
55.250,74.4012
55.260,74.5063
55.270,71.3989
55.280,73.0391
55.290,74.3511
55.300,76.1381
55.310,74.9801
55.320,68.7705
55.330,69.7264
55.340,72.1285
55.350,65.9581
55.360,66.6389
55.370,70.1956
55.380,71.1257
55.390,65.9060
55.400,68.6728
55.410,63.7554
55.420,71.9405
55.430,73.8201
55.440,73.7575
55.450,71.5169
55.460,73.0917
55.470,76.2729
55.480,73.7437
55.490,71.9146
55.500,66.1907
55.510,68.8166
55.520,69.9802
55.530,65.2963
55.540,65.0978
55.550,69.5264
55.560,67.5139
55.570,70.0353
55.580,77.3359
55.590,75.1479
55.600,70.9420
55.610,73.2533
55.620,73.7625
55.630,72.3376
55.640,77.8528
55.650,72.5272
55.660,73.6207
55.670,71.7651
55.680,75.9333
55.690,79.8920
55.700,72.5086
55.710,71.4045
55.720,73.0146
55.730,74.1563
55.740,76.6873
55.750,71.7476
55.760,75.3015
55.770,75.1257
55.780,78.4988
55.790,74.1619
55.800,80.0717
55.810,73.5540
55.820,72.5524
55.830,78.5450
55.840,71.9054
55.850,75.4748
55.860,74.1914
55.870,83.7508
55.880,74.6485
55.890,79.8066
55.900,80.4767
55.910,83.6402
55.920,72.9418
55.930,73.3653
55.940,83.4796
55.950,80.6498
55.960,80.0009
55.970,77.9139
55.980,82.1258
55.990,76.3105
56.000,80.5020
56.010,83.1957
56.020,80.5953
56.030,81.5645
56.040,85.2041
56.050,74.1455
56.060,80.0517
56.070,86.4014
56.080,79.4981
56.090,77.4262
56.100,85.8684
56.110,78.7557
56.120,75.0489
56.130,85.8511
56.140,83.6911
56.150,82.6134
56.160,80.8623
56.170,73.3859
56.180,81.2288
56.190,76.5872
56.200,86.0126
56.210,77.0225
56.220,78.3858
56.230,85.1968
56.240,80.1127
56.250,75.2126
56.260,83.7885
56.270,83.2109
56.280,73.5516
56.290,83.8958
56.300,84.1014
56.310,73.5824
56.320,74.1534
56.330,80.2946
56.340,78.0347
56.350,71.5201
56.360,76.7929
56.370,79.2111
56.380,79.7797
56.390,81.8251
56.400,76.0502
56.410,77.4293
56.420,75.9591
56.430,74.5602
56.440,76.4677
56.450,76.6679
56.460,68.7292
56.470,71.3011
56.480,78.8192
56.490,71.1001
56.500,71.7473
56.510,75.3514
56.520,73.3652
56.530,73.2078
56.540,74.7895
56.550,78.3456
56.560,72.4095
56.570,76.6140
56.580,66.8061
56.590,73.6182
56.600,75.1793
56.610,66.7632
56.620,66.7449
56.630,66.8093
56.640,74.3939
56.650,70.1367
56.660,75.3248
56.670,73.4443
56.680,72.3547
56.690,72.9019
56.700,69.0508
56.710,64.3191
56.720,72.4937
56.730,72.9265
56.740,66.6031
56.750,75.2347
56.760,76.2017
56.770,66.0705
56.780,75.6208
56.790,72.4389
56.800,73.7428
56.810,65.5094
56.820,65.7875
56.830,76.5892
56.840,72.5545
56.850,72.4947
56.860,70.4168
56.870,66.3138
56.880,76.8882
56.890,76.6502
56.900,65.4910
56.910,76.5273
56.920,75.6761
56.930,69.5280
56.940,68.1480
56.950,69.0413
56.960,71.3425
56.970,69.1316
56.980,74.4634
56.990,73.6286
57.000,78.5594
57.010,70.5775
57.020,77.2450
57.030,78.9819
57.040,75.0235
57.050,74.3845
57.060,69.4203
57.070,70.6078
57.080,76.9371
57.090,71.5041
57.100,76.5688
57.110,76.0928
57.120,69.9767
57.130,78.7483
57.140,80.5211
57.150,76.8666
57.160,74.8936
57.170,82.3631
57.180,70.6150
57.190,82.0449
57.200,79.7639
57.210,80.7099
57.220,72.0495
57.230,83.6809
57.240,77.5108
57.250,75.1254
57.260,79.7032
57.270,83.2778
57.280,81.0825
57.290,72.2642
57.300,79.7593
57.310,78.4308
57.320,75.5253
57.330,84.2485
57.340,73.4676
57.350,79.5276
57.360,81.6075
57.370,84.4922
57.380,79.9368
57.390,78.0277
57.400,79.5370
57.410,82.0959
57.420,81.9970
57.430,76.7733
57.440,84.8255
57.450,82.9347
57.460,85.5514
57.470,83.9972
57.480,79.6033
57.490,78.6096
57.500,78.4614
57.510,74.6270
57.520,85.7364
57.530,84.6928
57.540,78.6729
57.550,84.1680
57.560,83.9632
57.570,81.4628
57.580,84.9835
57.590,83.8932
57.600,76.4236
57.610,77.7914
57.620,79.1343
57.630,77.6473
57.640,74.8218
57.650,84.0314
57.660,73.7986
57.670,80.5332
57.680,72.7772
57.690,79.3524
57.700,82.6615
57.710,80.0343
57.720,82.8667
57.730,80.0626
57.740,74.7222
57.750,78.6130
57.760,75.1017
57.770,76.8105
57.780,83.1204
57.790,73.3909
57.800,81.6839
57.810,74.6871
57.820,81.0883
57.830,69.7489
57.840,76.1676
57.850,77.6714
57.860,71.6109
57.870,75.5147
57.880,70.1485
57.890,75.2307
57.900,77.0711
57.910,74.7332
57.920,72.0570
57.930,69.9248
57.940,73.6727
57.950,67.5782
57.960,72.9644
57.970,68.3989
57.980,74.2659
57.990,67.5476
58.000,72.3933
58.010,77.4716
58.020,66.3308
58.030,68.9070
58.040,71.1971
58.050,73.0792
58.060,68.0467
58.070,71.9250
58.080,69.0040
58.090,75.0890
58.100,67.0903
58.110,66.5731
58.120,76.7736
58.130,71.9526
58.140,67.4278
58.150,71.4581
58.160,74.7913
58.170,66.9738
58.180,71.8416
58.190,68.8482
58.200,76.7373
58.210,70.0731
58.220,74.0734
58.230,74.1359
58.240,67.3567
58.250,63.9829
58.260,67.8409
58.270,64.1713
58.280,68.7038
58.290,64.4901
58.300,71.9790
58.310,72.5943
58.320,69.6315
58.330,69.5996
58.340,66.4243
58.350,72.9973
58.360,75.0337
58.370,74.3098
58.380,69.1571
58.390,76.3356
58.400,70.7200
58.410,70.7700
58.420,65.8485
58.430,72.1361
58.440,70.3718
58.450,75.4054
58.460,72.7612
58.470,73.8112
58.480,72.4970
58.490,77.9674
58.500,67.9803
58.510,75.3878
58.520,78.9956
58.530,77.3878
58.540,69.5253
58.550,81.5139
58.560,78.0232
58.570,81.9894
58.580,71.3805
58.590,74.1105
58.600,75.3806
58.610,79.1690
58.620,79.5198
58.630,72.3118
58.640,82.0804
58.650,71.0993
58.660,79.5028
58.670,74.4890
58.680,78.7000
58.690,83.1172
58.700,77.5291
58.710,80.2585
58.720,83.9875
58.730,74.7027
58.740,73.9624
58.750,83.4897
58.760,74.2872
58.770,75.7621
58.780,77.2637
58.790,74.6466
58.800,80.8452
58.810,84.9017
58.820,84.9213
58.830,80.4934
58.840,79.9793
58.850,84.1027
58.860,75.2257
58.870,84.6085
58.880,76.6253
58.890,84.8670
58.900,78.9818
58.910,86.2155
58.920,76.1907
58.930,78.8110
58.940,84.8571
58.950,79.4686
58.960,80.9872
58.970,81.5968
58.980,80.9992
58.990,84.5451
59.000,75.6496
59.010,80.6264
59.020,78.0921
59.030,73.9074
59.040,78.9816
59.050,74.5296
59.060,75.7816
59.070,82.9618
59.080,79.5235
59.090,79.2833
59.100,76.5921
59.110,76.7967
59.120,85.0085
59.130,83.5593
59.140,72.4629
59.150,77.0442
59.160,83.0047
59.170,84.3996
59.180,77.5311
59.190,81.0102
59.200,78.3146
59.210,78.6711
59.220,75.3979
59.230,74.6397
59.240,82.0493
59.250,70.9498
59.260,75.5980
59.270,73.2347
59.280,79.0209
59.290,70.3469
59.300,70.5536
59.310,76.3968
59.320,76.8721
59.330,75.1654
59.340,78.5718
59.350,73.2968
59.360,77.2932
59.370,77.9433
59.380,71.1821
59.390,70.2489
59.400,68.4433
59.410,66.9435
59.420,67.6170
59.430,70.9077
59.440,74.7472
59.450,72.1573
59.460,70.2800
59.470,69.8161
59.480,74.4406
59.490,72.5151
59.500,71.3137
59.510,74.6247
59.520,69.8110
59.530,71.8351
59.540,65.2602
59.550,69.8944
59.560,64.7245
59.570,76.6516
59.580,75.0042
59.590,76.6785
59.600,72.9162
59.610,76.2674
59.620,66.5294
59.630,67.0517
59.640,74.2387
59.650,73.4259
59.660,70.2615
59.670,69.1105
59.680,75.5806
59.690,69.6065
59.700,64.6097
59.710,73.1959
59.720,66.8785
59.730,70.2812
59.740,71.8965
59.750,72.4502
59.760,73.8341
59.770,70.6760
59.780,77.5860
59.790,68.7961
59.800,76.7053
59.810,76.3808
59.820,65.7143
59.830,74.7978
59.840,73.8210
59.850,71.6117
59.860,66.4562
59.870,75.1194
59.880,73.6325
59.890,66.9048
59.900,72.2500
59.910,67.6877
59.920,68.3125
59.930,73.5069
59.940,74.1438
59.950,77.5463
59.960,70.7666
59.970,68.9116
59.980,77.2619
59.990,69.9763
