t_s,envelope_uV
0.000,79.1110
0.010,73.4579
0.020,74.6699
0.030,71.0190
0.040,71.4410
0.050,80.2865
0.060,72.3861
0.070,75.3536
0.080,75.2562
0.090,81.7813
0.100,76.7079
0.110,73.7714
0.120,77.3371
0.130,76.0359
0.140,81.5331
0.150,88.8855
0.160,88.5369
0.170,81.3427
0.180,74.3945
0.190,76.4091
0.200,82.0747
0.210,86.5752
0.220,81.9060
0.230,76.8040
0.240,89.9854
0.250,76.9210
0.260,86.4793
0.270,82.0288
0.280,87.7870
0.290,87.0550
0.300,86.3667
0.310,84.1681
0.320,81.4399
0.330,83.8579
0.340,76.8880
0.350,88.8929
0.360,76.0445
0.370,77.3031
0.380,84.6116
0.390,81.6276
0.400,83.3663
0.410,78.7408
0.420,83.2555
0.430,82.6952
0.440,82.3345
0.450,87.5599
0.460,80.6574
0.470,89.6430
0.480,90.2107
0.490,76.0595
0.500,90.0807
0.510,85.5830
0.520,78.8160
0.530,86.4213
0.540,86.7612
0.550,77.3818
0.560,75.8942
0.570,83.0720
0.580,87.3708
0.590,86.4409
0.600,72.7649
0.610,76.7943
0.620,75.7307
0.630,83.3513
0.640,78.1475
0.650,79.2564
0.660,75.4830
0.670,75.0750
0.680,84.2654
0.690,84.7468
0.700,80.7101
0.710,83.4639
0.720,71.9664
0.730,71.5461
0.740,84.0098
0.750,83.7118
0.760,71.4613
0.770,78.2915
0.780,68.8573
0.790,75.0050
0.800,78.8548
0.810,68.9261
0.820,68.9195
0.830,74.8461
0.840,67.2106
0.850,76.8702
0.860,67.0439
0.870,78.4323
0.880,80.7024
0.890,77.4416
0.900,74.5831
0.910,79.8174
0.920,74.4713
0.930,71.0018
0.940,64.7741
0.950,76.1934
0.960,71.7020
0.970,68.4882
0.980,77.3563
0.990,76.1832
1.000,77.6263
1.010,75.4012
1.020,78.0325
1.030,74.2328
1.040,68.7886
1.050,72.8278
1.060,75.0520
1.070,76.4463
1.080,72.8093
1.090,72.1557
1.100,68.2529
1.110,70.8815
1.120,68.4932
1.130,66.3825
1.140,71.0984
1.150,73.4670
1.160,76.6045
1.170,70.4199
1.180,73.5347
1.190,72.3886
1.200,74.7886
1.210,64.7657
1.220,76.6101
1.230,72.9083
1.240,79.9017
1.250,80.3737
1.260,72.9566
1.270,80.7483
1.280,78.9469
1.290,74.4530
1.300,67.1916
1.310,69.5433
1.320,76.3057
1.330,70.2362
1.340,74.1276
1.350,79.3646
1.360,76.6286
1.370,71.9163
1.380,71.0255
1.390,70.2693
1.400,82.2704
1.410,72.5613
1.420,79.5733
1.430,71.2441
1.440,83.5702
1.450,71.3580
1.460,84.1446
1.470,82.0968
1.480,80.7586
1.490,73.5018
1.500,86.6332
1.510,76.9367
1.520,83.6588
1.530,86.1189
1.540,79.7066
1.550,87.9153
1.560,87.8919
1.570,84.8901
1.580,77.2172
1.590,76.6740
1.600,84.1918
1.610,74.3406
1.620,86.9304
1.630,83.5867
1.640,77.3700
1.650,83.3446
1.660,84.8516
1.670,89.9885
1.680,88.7635
1.690,82.4142
1.700,85.5187
1.710,86.8584
1.720,77.4093
1.730,79.2725
1.740,90.3400
1.750,83.9220
1.760,80.3761
1.770,82.2599
1.780,89.7371
1.790,86.1364
1.800,80.6784
1.810,87.5055
1.820,85.9780
1.830,90.1391
1.840,87.1857
1.850,89.2619
1.860,87.6277
1.870,76.0693
1.880,75.8543
1.890,82.3200
1.900,75.5320
1.910,85.9645
1.920,86.0811
1.930,76.1389
1.940,79.4997
1.950,81.7685
1.960,87.5353
1.970,75.6681
1.980,84.4564
1.990,79.2562
2.000,76.5387
2.010,85.1493
2.020,87.3803
2.030,82.7847
2.040,81.9772
2.050,73.5482
2.060,81.4519
2.070,83.5725
2.080,78.3869
2.090,80.4598
2.100,78.8912
2.110,80.2090
2.120,83.4381
2.130,77.4527
2.140,75.4310
2.150,81.2532
2.160,69.4145
2.170,71.4400
2.180,75.8755
2.190,69.1026
2.200,80.6394
2.210,80.6052
2.220,80.2979
2.230,68.6769
2.240,78.1592
2.250,81.4030
2.260,79.5066
2.270,66.5647
2.280,73.9460
2.290,76.0030
2.300,73.1289
2.310,76.9420
2.320,79.1992
2.330,76.7661
2.340,65.8484
2.350,79.2494
2.360,66.6805
2.370,77.3007
2.380,77.8574
2.390,68.8609
2.400,67.2563
2.410,70.9698
2.420,69.4111
2.430,69.0596
2.440,79.3193
2.450,65.1790
2.460,77.3486
2.470,69.8472
2.480,72.5462
2.490,72.3413
2.500,71.7386
2.510,71.1375
2.520,71.6699
2.530,76.4885
2.540,71.0958
2.550,68.9475
2.560,74.0020
2.570,74.0534
2.580,74.9826
2.590,70.6934
2.600,75.4366
2.610,72.2319
2.620,70.7049
2.630,66.5731
2.640,78.0666
2.650,68.4863
2.660,73.2092
2.670,77.3547
2.680,71.4033
2.690,78.9353
2.700,80.4584
2.710,77.2333
2.720,81.6593
2.730,76.3401
2.740,80.3374
2.750,78.1346
2.760,67.7176
2.770,78.1045
2.780,75.3228
2.790,73.1650
2.800,79.9147
2.810,79.4411
2.820,69.1493
2.830,77.4761
2.840,70.9759
2.850,76.4579
2.860,83.6394
2.870,73.2480
2.880,77.5764
2.890,72.3444
2.900,84.8315
2.910,86.2161
2.920,75.1612
2.930,80.1531
2.940,77.2274
2.950,74.6656
2.960,76.5314
2.970,76.8764
2.980,75.2619
2.990,77.1932
3.000,78.3665
3.010,82.5583
3.020,86.8364
3.030,83.9991
3.040,85.6266
3.050,87.3607
3.060,88.3242
3.070,75.7070
3.080,87.6906
3.090,76.3766
3.100,82.2393
3.110,79.0561
3.120,90.1982
3.130,85.5138
3.140,82.7969
3.150,77.3807
3.160,76.0394
3.170,89.4247
3.180,82.9513
3.190,80.4044
3.200,87.4134
3.210,88.0786
3.220,89.4779
3.230,76.6033
3.240,80.1360
3.250,81.8995
3.260,78.3024
3.270,80.0541
3.280,86.0953
3.290,84.7420
3.300,87.0432
3.310,76.5618
3.320,81.0353
3.330,88.2710
3.340,85.8080
3.350,78.9916
3.360,84.5959
3.370,85.4066
3.380,80.3924
3.390,77.7541
3.400,84.7963
3.410,81.4043
3.420,81.4225
3.430,84.2841
3.440,85.7159
3.450,77.6000
3.460,76.3644
3.470,86.3729
3.480,74.2536
3.490,75.1123
3.500,76.8802
3.510,86.9756
3.520,75.0277
3.530,81.1882
3.540,80.1026
3.550,75.1832
3.560,81.6873
3.570,79.9007
3.580,83.9695
3.590,70.7200
3.600,73.0401
3.610,75.6685
3.620,81.1900
3.630,69.7022
3.640,77.0182
3.650,78.6835
3.660,76.1348
3.670,75.9133
3.680,67.7793
3.690,70.7408
3.700,79.9008
3.710,75.2581
3.720,72.7441
3.730,76.1220
3.740,69.9186
3.750,76.5248
3.760,73.7436
3.770,76.9732
3.780,65.1705
3.790,74.8911
3.800,66.8323
3.810,77.1705
3.820,67.7445
3.830,72.5699
3.840,69.5111
3.850,72.2281
3.860,65.5294
3.870,66.3601
3.880,78.8904
3.890,65.5048
3.900,76.7346
3.910,75.4022
3.920,68.2846
3.930,70.8175
3.940,65.3613
3.950,78.1975
3.960,66.2047
3.970,68.6950
3.980,75.0139
3.990,68.1189
4.000,69.7096
4.010,69.8952
4.020,77.5125
4.030,78.5438
4.040,79.3675
4.050,79.6831
4.060,72.5866
4.070,75.4769
4.080,77.6810
4.090,67.8379
4.100,70.3248
4.110,66.1183
4.120,72.2867
4.130,78.6016
4.140,68.3735
4.150,69.7210
4.160,81.3535
4.170,75.0688
4.180,70.5582
4.190,80.2388
4.200,73.3854
4.210,79.3581
4.220,74.9793
4.230,81.5501
4.240,70.7486
4.250,81.6312
4.260,77.0171
4.270,72.2151
4.280,70.2226
4.290,78.3008
4.300,74.6535
4.310,76.5664
4.320,72.1442
4.330,82.1069
4.340,83.2869
4.350,79.4644
4.360,85.6268
4.370,77.4224
4.380,79.2981
4.390,75.4200
4.400,79.4226
4.410,85.7225
4.420,88.8308
4.430,76.4210
4.440,76.0663
4.450,74.8619
4.460,75.5822
4.470,77.0305
4.480,78.7367
4.490,78.7862
4.500,85.0508
4.510,85.5061
4.520,80.1740
4.530,76.2996
4.540,84.0388
4.550,79.2871
4.560,82.4941
4.570,91.0078
4.580,83.8468
4.590,87.2823
4.600,77.0555
4.610,90.6478
4.620,76.6011
4.630,88.3315
4.640,87.3135
4.650,86.7742
4.660,88.6473
4.670,76.2443
4.680,78.1821
4.690,83.6004
4.700,76.7207
4.710,89.4444
4.720,79.9974
4.730,90.6562
4.740,83.8469
4.750,83.7907
4.760,81.1618
4.770,90.7137
4.780,77.4618
4.790,85.5532
4.800,76.6635
4.810,83.5216
4.820,88.7157
4.830,86.9976
4.840,81.1484
4.850,74.3825
4.860,88.9244
4.870,83.0691
4.880,76.8917
4.890,88.1406
4.900,81.7334
4.910,73.7820
4.920,85.9218
4.930,72.0116
4.940,79.3607
4.950,77.4864
4.960,71.2761
4.970,75.2046
4.980,77.4889
4.990,85.7443
5.000,79.4443
5.010,71.5133
5.020,73.4008
5.030,71.6215
5.040,78.5926
5.050,75.2159
5.060,72.5992
5.070,68.6695
5.080,77.7417
5.090,69.2277
5.100,81.3600
5.110,76.6952
5.120,70.6360
5.130,68.5278
5.140,72.3352
5.150,77.9073
5.160,74.7400
5.170,78.1315
5.180,71.7381
5.190,70.6327
5.200,76.0665
5.210,68.6564
5.220,70.6597
5.230,68.2785
5.240,69.8329
5.250,65.5107
5.260,75.1587
5.270,69.3836
5.280,71.6375
5.290,70.4597
5.300,73.9007
5.310,68.6672
5.320,70.0630
5.330,71.7099
5.340,74.1801
5.350,67.4665
5.360,74.8283
5.370,67.9580
5.380,69.3375
5.390,73.3924
5.400,76.1511
5.410,73.7860
5.420,71.6206
5.430,64.2792
5.440,68.0021
5.450,79.2980
5.460,72.2444
5.470,72.8421
5.480,65.0813
5.490,67.9294
5.500,65.9954
5.510,71.5172
5.520,79.7234
5.530,79.3770
5.540,68.5004
5.550,70.9657
5.560,70.6083
5.570,80.8446
5.580,80.7382
5.590,71.8424
5.600,74.5313
5.610,75.9560
5.620,76.0152
5.630,77.0947
5.640,81.2044
5.650,74.4597
5.660,74.4472
5.670,79.5387
5.680,70.3714
5.690,79.0874
5.700,81.9322
5.710,78.4008
5.720,71.1964
5.730,83.8109
5.740,81.1749
5.750,83.5378
5.760,84.0273
5.770,76.8200
5.780,78.0924
5.790,83.1356
5.800,81.0202
5.810,86.6755
5.820,78.3989
5.830,73.6759
5.840,77.7403
5.850,81.1871
5.860,87.0663
5.870,89.4079
5.880,84.1537
5.890,87.9157
5.900,76.2125
5.910,81.9814
5.920,76.2881
5.930,88.2815
5.940,88.1488
5.950,76.6076
5.960,83.8880
5.970,80.5406
5.980,88.3204
5.990,87.5368
6.000,83.2648
6.010,88.3920
6.020,81.7196
6.030,90.4448
6.040,85.0419
6.050,90.6929
6.060,90.6822
6.070,85.1857
6.080,80.7218
6.090,84.2919
6.100,80.6184
6.110,84.5338
6.120,91.0942
6.130,83.3656
6.140,83.9685
6.150,80.7842
6.160,85.2908
6.170,87.2801
6.180,82.2224
6.190,76.0150
6.200,75.5999
6.210,90.6401
6.220,80.0774
6.230,90.0988
6.240,83.4273
6.250,86.1957
6.260,77.3172
6.270,79.1924
6.280,76.7079
6.290,83.6858
6.300,88.4532
6.310,75.3050
6.320,73.1515
6.330,77.0505
6.340,75.1979
6.350,76.2937
6.360,84.1216
6.370,74.5718
6.380,79.9433
6.390,76.3186
6.400,72.1402
6.410,71.7079
6.420,83.7350
6.430,79.1184
6.440,84.6989
6.450,69.7259
6.460,80.9252
6.470,74.3733
6.480,74.5974
6.490,77.7113
6.500,68.6429
6.510,72.5350
6.520,83.1602
6.530,73.3481
6.540,79.9458
6.550,77.2200
6.560,74.8588
6.570,70.3508
6.580,71.7100
6.590,77.6742
6.600,77.3567
6.610,76.4548
6.620,75.8737
6.630,66.6714
6.640,79.1517
6.650,80.4840
6.660,78.0830
6.670,78.4990
6.680,65.5194
6.690,68.2581
6.700,75.0173
6.710,72.6874
6.720,75.5623
6.730,69.8685
6.740,77.2413
6.750,70.4495
6.760,64.9807
6.770,78.0179
6.780,77.1112
6.790,74.3054
6.800,73.8134
6.810,67.2356
6.820,73.9695
6.830,75.6021
6.840,65.1035
6.850,67.8969
6.860,65.0729
6.870,64.5979
6.880,78.8591
6.890,64.9550
6.900,68.5018
6.910,70.3430
6.920,69.8278
6.930,68.9277
6.940,77.9351
6.950,73.2893
6.960,76.4773
6.970,69.4104
6.980,72.0001
6.990,68.0480
7.000,72.2893
7.010,68.4936
7.020,76.2310
7.030,77.1761
7.040,68.4602
7.050,74.1981
7.060,78.7813
7.070,73.8445
7.080,78.5580
7.090,73.8610
7.100,73.7669
7.110,81.9993
7.120,83.9633
7.130,83.2793
7.140,85.2874
7.150,83.1218
7.160,85.7746
7.170,76.3117
7.180,84.0339
7.190,86.1685
7.200,78.1107
7.210,83.9481
7.220,82.4633
7.230,79.6915
7.240,79.9870
7.250,81.9603
7.260,74.7035
7.270,87.4811
7.280,86.4176
7.290,79.2457
7.300,77.5567
7.310,75.0317
7.320,83.3939
7.330,89.8588
7.340,77.7177
7.350,80.9748
7.360,87.7172
7.370,80.9173
7.380,76.0452
7.390,88.6635
7.400,90.0045
7.410,82.3668
7.420,89.7103
7.430,79.8752
7.440,83.6595
7.450,84.2578
7.460,82.0711
7.470,83.9302
7.480,88.3170
7.490,87.7345
7.500,88.1868
7.510,78.1994
7.520,78.2721
7.530,77.8744
7.540,89.1274
7.550,82.5345
7.560,86.6729
7.570,86.4818
7.580,82.3412
7.590,82.1374
7.600,82.1499
7.610,76.4492
7.620,76.2728
7.630,84.8775
7.640,90.6831
7.650,90.3443
7.660,90.0806
7.670,82.0035
7.680,75.5847
7.690,74.6840
7.700,77.7726
7.710,86.2694
7.720,80.5694
7.730,77.7011
7.740,77.7152
7.750,83.8818
7.760,79.4402
7.770,85.1691
7.780,87.8123
7.790,83.3118
7.800,75.7371
7.810,80.8390
7.820,84.8279
7.830,77.1394
7.840,75.1673
7.850,75.4056
7.860,75.6767
7.870,73.2561
7.880,79.3137
7.890,82.4602
7.900,73.1590
7.910,78.7365
7.920,68.9071
7.930,74.6005
7.940,72.9775
7.950,77.7401
7.960,81.3077
7.970,79.1760
7.980,81.8937
7.990,80.7041
8.000,72.5533
8.010,73.9342
8.020,81.4099
8.030,77.1360
8.040,74.4044
8.050,76.9656
8.060,79.9180
8.070,75.0360
8.080,70.4316
8.090,76.0938
8.100,67.1437
8.110,71.9457
8.120,78.5831
8.130,79.8770
8.140,71.9919
8.150,65.1578
8.160,68.7868
8.170,70.1732
8.180,74.7503
8.190,73.5025
8.200,74.9160
8.210,74.3197
8.220,74.5374
8.230,65.5985
8.240,67.0457
8.250,76.3067
8.260,75.8353
8.270,65.5339
8.280,69.5861
8.290,74.2460
8.300,69.2708
8.310,69.9021
8.320,65.1332
8.330,77.8432
8.340,76.3079
8.350,74.5775
8.360,75.4822
8.370,76.0109
8.380,80.2297
8.390,70.5090
8.400,78.0279
8.410,74.1421
8.420,75.4330
8.430,76.0102
8.440,77.3986
8.450,75.2002
8.460,76.6405
8.470,81.9866
8.480,70.3706
8.490,79.5373
8.500,75.0175
8.510,74.1675
8.520,72.4320
8.530,73.9558
8.540,76.4846
8.550,83.8387
8.560,73.2240
8.570,74.6730
8.580,71.6169
8.590,86.2307
8.600,73.4582
8.610,81.1206
8.620,74.8034
8.630,81.5012
8.640,84.7850
8.650,80.5880
8.660,77.2246
8.670,78.3798
8.680,80.6438
8.690,86.4031
8.700,84.9425
8.710,87.7960
8.720,86.4668
8.730,78.0233
8.740,87.7787
8.750,76.7367
8.760,80.7988
8.770,78.1350
8.780,75.8538
8.790,79.1128
8.800,82.0167
8.810,82.3999
8.820,85.0671
8.830,88.8369
8.840,88.6768
8.850,78.3619
8.860,90.4712
8.870,78.0263
8.880,85.9138
8.890,84.0579
8.900,77.5447
8.910,91.7344
8.920,88.6539
8.930,77.7734
8.940,83.3292
8.950,86.7579
8.960,88.1657
8.970,78.5175
8.980,84.0937
8.990,86.7144
9.000,88.9721
9.010,79.3101
9.020,82.7989
9.030,87.7852
9.040,90.2301
9.050,78.9765
9.060,86.9045
9.070,86.8352
9.080,89.5147
9.090,88.4578
9.100,87.5155
9.110,89.8597
9.120,78.4797
9.130,88.7278
9.140,88.4407
9.150,87.9149
9.160,77.5477
9.170,73.8245
9.180,74.6325
9.190,74.7088
9.200,74.9845
9.210,84.4046
9.220,85.1713
9.230,75.0608
9.240,83.9003
9.250,71.9042
9.260,82.5974
9.270,72.4051
9.280,75.0742
9.290,82.3567
9.300,81.3932
9.310,72.5747
9.320,81.5061
9.330,70.1407
9.340,83.6946
9.350,79.4493
9.360,72.0839
9.370,76.7352
9.380,70.9451
9.390,77.0917
9.400,82.0109
9.410,71.8530
9.420,76.8883
9.430,70.5296
9.440,81.3592
9.450,77.5561
9.460,73.1510
9.470,75.9387
9.480,66.7668
9.490,65.9142
9.500,80.4589
9.510,77.9988
9.520,72.6376
9.530,66.7706
9.540,65.7550
9.550,67.3028
9.560,71.1074
9.570,67.0542
9.580,70.9921
9.590,73.3183
9.600,76.0305
9.610,67.0051
9.620,74.0526
9.630,67.8935
9.640,71.4943
9.650,67.1787
9.660,78.9470
9.670,79.4607
9.680,75.2845
9.690,78.9706
9.700,69.0531
9.710,72.2015
9.720,69.5811
9.730,75.9107
9.740,70.7881
9.750,76.1596
9.760,74.5895
9.770,73.4130
9.780,77.8670
9.790,73.5986
9.800,74.8446
9.810,67.1749
9.820,72.4059
9.830,78.6158
9.840,72.8413
9.850,81.5609
9.860,73.3008
9.870,82.1664
9.880,79.5784
9.890,74.4412
9.900,77.9390
9.910,76.8137
9.920,71.7454
9.930,68.9972
9.940,78.7957
9.950,82.9601
9.960,75.8701
9.970,81.0887
9.980,76.5345
9.990,82.4876
10.000,81.6781
10.010,73.5121
10.020,74.0254
10.030,75.9256
10.040,73.5767
10.050,75.1221
10.060,77.2030
10.070,73.9394
10.080,75.3973
10.090,74.3543
10.100,85.0365
10.110,87.3462
10.120,83.8975
10.130,80.6991
10.140,78.2549
10.150,77.5524
10.160,78.2643
10.170,83.4346
10.180,87.1696
10.190,87.4770
10.200,79.0867
10.210,78.3495
10.220,79.3124
10.230,87.8845
10.240,81.1520
10.250,89.1654
10.260,83.3911
10.270,82.2642
10.280,88.0134
10.290,80.2047
10.300,78.1609
10.310,80.4882
10.320,81.2943
10.330,77.3593
10.340,81.5866
10.350,91.6725
10.360,88.1004
10.370,83.3508
10.380,88.0677
10.390,89.7741
10.400,79.3282
10.410,77.3929
10.420,88.6486
10.430,81.3502
10.440,77.2445
10.450,85.4520
10.460,89.8202
10.470,86.9986
10.480,83.2174
10.490,88.3227
10.500,85.6560
10.510,82.8567
10.520,88.9827
10.530,80.0855
10.540,83.6651
10.550,80.2261
10.560,89.1863
10.570,87.6130
10.580,84.8683
10.590,75.3290
10.600,83.7332
10.610,76.6062
10.620,77.6671
10.630,87.0279
10.640,85.9908
10.650,73.5240
10.660,85.9287
10.670,78.4510
10.680,72.5759
10.690,85.2697
10.700,84.4844
10.710,75.8757
10.720,73.8927
10.730,79.3195
10.740,78.7386
10.750,74.3345
10.760,81.0231
10.770,69.4298
10.780,76.0108
10.790,73.5451
10.800,71.8484
10.810,72.2844
10.820,70.8073
10.830,80.1445
10.840,80.7977
10.850,80.9956
10.860,77.5857
10.870,80.9868
10.880,70.9401
10.890,73.2276
10.900,80.7635
10.910,69.7582
10.920,74.6380
10.930,74.7994
10.940,75.5644
10.950,73.3343
10.960,67.5093
10.970,71.8553
10.980,72.6517
10.990,76.4167
11.000,75.5746
11.010,79.3800
11.020,79.7319
11.030,71.9321
11.040,67.8876
11.050,67.0049
11.060,78.1199
11.070,76.9892
11.080,73.8144
11.090,72.8369
11.100,68.4668
11.110,79.9488
11.120,68.4157
11.130,75.0344
11.140,72.7231
11.150,70.2803
11.160,70.5858
11.170,72.3962
11.180,74.9485
11.190,73.6382
11.200,71.4421
11.210,74.5470
11.220,80.2839
11.230,73.8340
11.240,76.3599
11.250,78.3301
11.260,78.6002
11.270,75.8163
11.280,70.9929
11.290,70.7970
11.300,70.4139
11.310,78.2495
11.320,75.7288
11.330,81.8328
11.340,74.3335
11.350,80.9836
11.360,83.7498
11.370,80.0810
11.380,69.6162
11.390,80.8174
11.400,74.0984
11.410,72.3583
11.420,81.2170
11.430,83.7387
11.440,72.6894
11.450,77.2363
11.460,81.7545
11.470,76.1960
11.480,85.1977
11.490,82.7399
11.500,79.5950
11.510,77.3335
11.520,78.7879
11.530,77.7191
11.540,86.3896
11.550,87.7753
11.560,76.7317
11.570,87.2074
11.580,87.0383
11.590,87.2223
11.600,87.9859
11.610,75.2468
11.620,81.6629
11.630,86.5489
11.640,83.2385
11.650,83.6736
11.660,89.2381
11.670,82.1549
11.680,91.4764
11.690,81.6642
11.700,90.2279
11.710,84.4125
11.720,77.7703
11.730,83.5516
11.740,90.1106
11.750,89.7143
11.760,87.0523
11.770,91.9026
11.780,88.1413
11.790,89.0636
11.800,84.5099
11.810,76.9216
11.820,83.9473
11.830,90.1935
11.840,81.7869
11.850,77.7233
11.860,85.7798
11.870,81.3930
11.880,80.7969
11.890,81.3008
11.900,85.4182
11.910,78.5226
11.920,85.5769
11.930,89.4909
11.940,86.9517
11.950,76.4344
11.960,88.0950
11.970,81.5479
11.980,83.5532
11.990,87.1218
12.000,86.6901
12.010,79.7285
12.020,75.8030
12.030,84.9986
12.040,74.2168
12.050,74.0705
12.060,80.7187
12.070,87.4021
12.080,76.8684
12.090,82.1980
12.100,78.4246
12.110,73.6694
12.120,83.8228
12.130,80.9282
12.140,85.7473
12.150,84.7590
12.160,75.5651
12.170,76.6758
12.180,85.0976
12.190,77.6064
12.200,70.2848
12.210,75.6923
12.220,81.9795
12.230,74.7996
12.240,77.5921
12.250,73.7306
12.260,82.9602
12.270,73.4870
12.280,82.5192
12.290,72.2734
12.300,79.0881
12.310,78.8589
12.320,68.5070
12.330,67.6051
12.340,79.5234
12.350,73.7367
12.360,80.9724
12.370,73.3426
12.380,65.9977
12.390,78.1884
12.400,67.3589
12.410,75.6032
12.420,70.6329
12.430,77.5833
12.440,79.9006
12.450,65.6925
12.460,68.6954
12.470,66.5981
12.480,71.4734
12.490,78.8473
12.500,70.6824
12.510,71.2220
12.520,68.5934
12.530,80.0401
12.540,65.3551
12.550,74.4446
12.560,73.8192
12.570,69.6621
12.580,72.5974
12.590,72.1178
12.600,73.9277
12.610,73.9869
12.620,72.3573
12.630,80.4366
12.640,73.0397
12.650,79.8242
12.660,69.0455
12.670,74.3005
12.680,75.1197
12.690,75.2464
12.700,75.0328
12.710,69.5427
12.720,81.1408
12.730,70.9315
12.740,82.0894
12.750,75.4553
12.760,79.3940
12.770,75.8896
12.780,75.0160
12.790,77.4076
12.800,82.2674
12.810,74.1812
12.820,73.0389
12.830,75.0157
12.840,73.4091
12.850,74.3078
12.860,84.1169
12.870,74.7839
12.880,74.7030
12.890,81.5490
12.900,87.1879
12.910,74.6793
12.920,80.5284
12.930,84.8283
12.940,87.4897
12.950,81.4041
12.960,80.8126
12.970,78.7754
12.980,77.7830
12.990,87.5235
13.000,77.3208
13.010,85.9307
13.020,84.9983
13.030,79.0320
13.040,76.6913
13.050,79.9275
13.060,83.4796
13.070,86.2700
13.080,77.7363
13.090,81.3591
13.100,89.0253
13.110,81.0291
13.120,85.7804
13.130,81.2054
13.140,83.2473
13.150,76.9239
13.160,84.5684
13.170,91.4571
13.180,77.9783
13.190,78.3396
13.200,87.0440
13.210,79.6394
13.220,89.6671
13.230,90.0432
13.240,83.0020
13.250,81.7470
13.260,87.1681
13.270,79.5909
13.280,77.1104
13.290,91.3015
13.300,83.5432
13.310,85.7290
13.320,82.8340
13.330,77.8846
13.340,79.2212
13.350,78.1822
13.360,89.4670
13.370,86.0018
13.380,76.8158
13.390,78.8890
13.400,86.5660
13.410,86.2237
13.420,82.6693
13.430,75.4323
13.440,78.1841
13.450,83.1146
13.460,74.5007
13.470,82.8211
13.480,84.2497
13.490,88.4042
13.500,87.7007
13.510,78.0797
13.520,85.2089
13.530,74.9473
13.540,79.2124
13.550,82.7020
13.560,76.4294
13.570,80.2520
13.580,80.6963
13.590,79.8804
13.600,74.7830
13.610,70.1755
13.620,78.2961
13.630,81.7552
13.640,73.4368
13.650,83.3530
13.660,80.1753
13.670,77.4275
13.680,77.1907
13.690,71.3543
13.700,82.0803
13.710,78.4156
13.720,69.6944
13.730,77.8284
13.740,67.7228
13.750,76.4977
13.760,66.4401
13.770,70.5323
13.780,76.4450
13.790,72.9529
13.800,79.3102
13.810,73.5634
13.820,79.2528
13.830,78.5839
13.840,75.9843
13.850,66.2229
13.860,69.9488
13.870,78.3103
13.880,77.0662
13.890,69.3563
13.900,73.4130
13.910,70.6979
13.920,67.5802
13.930,72.8399
13.940,65.5698
13.950,64.7717
13.960,74.3968
13.970,67.5718
13.980,80.2510
13.990,73.4061
14.000,76.2588
14.010,73.7734
14.020,69.2667
14.030,79.9566
14.040,72.9547
14.050,75.6608
14.060,78.0815
14.070,75.0908
14.080,76.5547
14.090,70.6055
14.100,81.0150
14.110,77.7403
14.120,76.0231
14.130,68.4410
14.140,74.0857
14.150,81.6176
14.160,71.8151
14.170,74.0901
14.180,71.8379
14.190,75.8348
14.200,80.5272
14.210,69.6724
14.220,76.2709
14.230,79.8156
14.240,83.1974
14.250,84.2701
14.260,84.0195
14.270,83.5354
14.280,82.2101
14.290,79.9954
14.300,79.5284
14.310,83.8924
14.320,74.1575
14.330,82.1583
14.340,82.4003
14.350,82.9575
14.360,83.4836
14.370,88.6564
14.380,74.7717
14.390,79.8482
14.400,89.1460
14.410,76.7011
14.420,83.8105
14.430,85.9162
14.440,80.5220
14.450,88.8201
14.460,89.3517
14.470,80.2569
14.480,90.6231
14.490,87.5950
14.500,82.4204
14.510,79.0867
14.520,79.8089
14.530,82.3805
14.540,84.0623
14.550,88.4239
14.560,89.6510
14.570,90.8877
14.580,91.9168
14.590,89.2612
14.600,84.8181
14.610,90.3056
14.620,83.9823
14.630,77.8112
14.640,86.2621
14.650,89.5648
14.660,80.5151
14.670,77.4786
14.680,78.5206
14.690,84.6703
14.700,87.6384
14.710,79.1568
14.720,89.8573
14.730,88.3317
14.740,76.8539
14.750,81.1695
14.760,83.6370
14.770,79.0024
14.780,85.1651
14.790,87.9403
14.800,82.0165
14.810,78.8520
14.820,77.0380
14.830,78.4509
14.840,89.3148
14.850,75.2241
14.860,87.8113
14.870,87.8337
14.880,87.8647
14.890,79.6960
14.900,74.1649
14.910,76.8332
14.920,79.6370
14.930,86.5481
14.940,74.7329
14.950,86.1464
14.960,72.6181
14.970,76.2005
14.980,76.2327
14.990,79.1831
15.000,83.0731
15.010,82.5352
15.020,75.8698
15.030,77.2921
15.040,84.8319
15.050,87.2438
15.060,91.2001
15.070,90.9203
15.080,88.3834
15.090,95.0642
15.100,85.7020
15.110,93.2446
15.120,92.1353
15.130,89.3739
15.140,96.7796
15.150,103.1345
15.160,90.9678
15.170,94.2321
15.180,93.6999
15.190,100.3362
15.200,96.9174
15.210,110.7250
15.220,100.8807
15.230,108.5657
15.240,113.2141
15.250,115.1150
15.260,113.2247
15.270,106.3169
15.280,118.5909
15.290,115.5455
15.300,111.7883
15.310,118.6428
15.320,119.2243
15.330,114.7997
15.340,118.2899
15.350,123.3305
15.360,116.0193
15.370,119.2553
15.380,129.3113
15.390,118.9999
15.400,125.6981
15.410,124.7116
15.420,126.8600
15.430,129.9694
15.440,128.5251
15.450,132.9194
15.460,138.3281
15.470,130.6035
15.480,132.5630
15.490,131.7121
15.500,143.9832
15.510,139.5079
15.520,141.9110
15.530,139.3184
15.540,136.9883
15.550,144.0941
15.560,147.7285
15.570,152.6228
15.580,140.7396
15.590,148.2510
15.600,155.6317
15.610,148.8131
15.620,146.8134
15.630,146.7220
15.640,155.3342
15.650,155.7938
15.660,163.6060
15.670,162.8658
15.680,156.7988
15.690,156.4066
15.700,158.0936
15.710,162.4446
15.720,157.8196
15.730,164.5705
15.740,171.6795
15.750,173.1280
15.760,170.6913
15.770,165.1404
15.780,166.0261
15.790,166.1047
15.800,173.9657
15.810,177.8311
15.820,174.1387
15.830,170.9728
15.840,173.6786
15.850,173.4257
15.860,180.3561
15.870,184.9652
15.880,188.9396
15.890,185.9134
15.900,179.7163
15.910,188.1497
15.920,183.8256
15.930,193.6390
15.940,187.8601
15.950,183.5617
15.960,185.2368
15.970,199.9988
15.980,190.9717
15.990,194.1107
16.000,190.2295
16.010,198.1883
16.020,200.6204
16.030,198.2131
16.040,196.4236
16.050,198.4788
16.060,203.4445
16.070,203.0113
16.080,190.8718
16.090,194.1983
16.100,195.1221
16.110,189.5528
16.120,204.7580
16.130,196.2606
16.140,199.5619
16.150,197.2199
16.160,198.1143
16.170,194.0886
16.180,199.6994
16.190,202.6163
16.200,196.8481
16.210,197.4656
16.220,194.6167
16.230,199.7360
16.240,192.2135
16.250,204.2605
16.260,202.8929
16.270,197.0468
16.280,197.1150
16.290,195.4228
16.300,204.7145
16.310,202.1350
16.320,200.9604
16.330,204.5241
16.340,191.3338
16.350,189.6699
16.360,191.9902
16.370,191.2650
16.380,194.3653
16.390,202.5974
16.400,191.4734
16.410,189.6445
16.420,196.4995
16.430,189.5525
16.440,196.7273
16.450,199.8682
16.460,196.7411
16.470,201.1920
16.480,204.7789
16.490,204.7786
16.500,204.5303
16.510,195.6892
16.520,192.4202
16.530,191.8418
16.540,194.1982
16.550,201.3277
16.560,194.7044
16.570,192.8552
16.580,200.8442
16.590,194.0049
16.600,199.1023
16.610,193.5504
16.620,192.6772
16.630,194.2569
16.640,198.6880
16.650,201.6478
16.660,204.8764
16.670,200.1391
16.680,191.1188
16.690,203.6833
16.700,202.5717
16.710,191.0019
16.720,196.5399
16.730,192.3822
16.740,204.0628
16.750,194.1303
16.760,192.2294
16.770,198.3005
16.780,190.7471
16.790,198.2867
16.800,195.1548
16.810,194.6559
16.820,204.2176
16.830,194.3650
16.840,204.6809
16.850,194.0540
16.860,204.4903
16.870,189.8890
16.880,200.4617
16.890,200.0297
16.900,190.9868
16.910,202.1348
16.920,189.6101
16.930,195.1012
16.940,201.5485
16.950,190.9621
16.960,202.3827
16.970,202.9767
16.980,190.0156
16.990,191.1002
17.000,76.3236
17.010,70.6065
17.020,73.5367
17.030,76.4497
17.040,74.0361
17.050,73.3573
17.060,78.9121
17.070,72.3108
17.080,74.2843
17.090,82.3543
17.100,72.1098
17.110,83.2518
17.120,77.4817
17.130,76.5926
17.140,80.7319
17.150,75.4143
17.160,86.6127
17.170,81.8127
17.180,82.1324
17.190,73.3937
17.200,78.5559
17.210,77.7213
17.220,84.7838
17.230,83.4874
17.240,76.7837
17.250,76.7238
17.260,80.0467
17.270,77.7790
17.280,83.5307
17.290,83.0015
17.300,86.0266
17.310,83.1298
17.320,75.9419
17.330,81.3258
17.340,86.0196
17.350,84.8238
17.360,88.6681
17.370,89.4703
17.380,79.6538
17.390,87.8523
17.400,91.7825
17.410,83.6016
17.420,91.8071
17.430,78.5826
17.440,85.7247
17.450,92.5637
17.460,90.9039
17.470,82.2792
17.480,86.0253
17.490,81.7677
17.500,81.6815
17.510,86.1578
17.520,82.5250
17.530,92.7913
17.540,92.2127
17.550,85.6518
17.560,90.1987
17.570,80.7549
17.580,85.8628
17.590,88.7374
17.600,90.9569
17.610,90.5540
17.620,81.7479
17.630,79.9298
17.640,88.4042
17.650,78.8407
17.660,77.6288
17.670,88.1829
17.680,87.6603
17.690,85.9014
17.700,89.5190
17.710,82.5781
17.720,75.0215
17.730,75.7159
17.740,86.8559
17.750,80.8288
17.760,74.7794
17.770,83.5008
17.780,75.4080
17.790,82.8562
17.800,74.3202
17.810,83.7036
17.820,86.6367
17.830,80.3855
17.840,73.5149
17.850,85.4520
17.860,78.0774
17.870,80.5614
17.880,72.7755
17.890,79.1650
17.900,73.6258
17.910,75.7099
17.920,83.2095
17.930,78.9938
17.940,70.5389
17.950,78.8020
17.960,79.4853
17.970,83.2518
17.980,72.2810
17.990,81.6707
18.000,78.4370
18.010,73.0841
18.020,67.9188
18.030,78.1950
18.040,75.4003
18.050,70.1448
18.060,72.8154
18.070,72.6214
18.080,67.7621
18.090,80.1626
18.100,77.5883
18.110,72.3803
18.120,76.1016
18.130,69.5386
18.140,70.2578
18.150,78.9506
18.160,72.1947
18.170,65.3114
18.180,77.4952
18.190,75.6753
18.200,65.3804
18.210,76.2688
18.220,73.0673
18.230,71.0759
18.240,70.0078
18.250,66.8515
18.260,68.0215
18.270,72.8383
18.280,65.6889
18.290,69.9275
18.300,66.5252
18.310,72.2060
18.320,66.6244
18.330,78.9541
18.340,73.7079
18.350,80.1349
18.360,79.2344
18.370,69.4740
18.380,76.4452
18.390,68.7069
18.400,71.8944
18.410,74.6477
18.420,78.7471
18.430,79.3600
18.440,81.8482
18.450,73.1348
18.460,81.7137
18.470,79.1971
18.480,74.1596
18.490,81.6623
18.500,76.3924
18.510,79.8115
18.520,84.6474
18.530,77.1017
18.540,82.3740
18.550,75.6080
18.560,81.2667
18.570,71.7481
18.580,85.1262
18.590,74.1750
18.600,80.9050
18.610,74.6268
18.620,81.4602
18.630,80.1024
18.640,88.2060
18.650,83.9128
18.660,80.6862
18.670,79.7114
18.680,82.1363
18.690,82.1615
18.700,82.3171
18.710,79.3883
18.720,77.7465
18.730,78.0327
18.740,87.4661
18.750,89.5789
18.760,78.7015
18.770,80.2675
18.780,84.7214
18.790,79.6941
18.800,82.8685
18.810,85.7903
18.820,83.9454
18.830,88.8524
18.840,81.2882
18.850,77.9312
18.860,91.0573
18.870,89.5736
18.880,83.4902
18.890,77.4694
18.900,86.3205
18.910,88.8263
18.920,79.0514
18.930,86.1573
18.940,89.4956
18.950,80.7721
18.960,85.4775
18.970,81.0087
18.980,86.1952
18.990,88.7076
19.000,90.6576
19.010,79.6104
19.020,84.7992
19.030,88.8084
19.040,85.0379
19.050,90.5236
19.060,82.0628
19.070,89.9987
19.080,79.9528
19.090,88.5214
19.100,88.2812
19.110,78.7595
19.120,84.1404
19.130,81.5822
19.140,81.0566
19.150,77.9398
19.160,85.4103
19.170,88.0414
19.180,78.1083
19.190,87.7742
19.200,88.3670
19.210,75.6171
19.220,81.8298
19.230,77.8453
19.240,86.5547
19.250,78.7025
19.260,79.1718
19.270,86.7550
19.280,84.6681
19.290,72.8083
19.300,82.4832
19.310,84.2677
19.320,75.0502
19.330,80.0923
19.340,75.6333
19.350,79.2372
19.360,78.7620
19.370,84.6313
19.380,80.6481
19.390,71.9449
19.400,78.4986
19.410,83.1029
19.420,76.4308
19.430,69.6777
19.440,69.1532
19.450,69.5985
19.460,80.2607
19.470,68.6906
19.480,73.1866
19.490,75.9817
19.500,76.1453
19.510,74.1490
19.520,70.8313
19.530,76.2111
19.540,65.9360
19.550,65.7773
19.560,68.1821
19.570,71.3991
19.580,74.2586
19.590,67.8511
19.600,68.3602
19.610,79.9280
19.620,66.8551
19.630,73.6923
19.640,78.1614
19.650,73.1438
19.660,71.0995
19.670,71.2188
19.680,76.1997
19.690,74.5254
19.700,76.0502
19.710,67.2370
19.720,73.4724
19.730,75.3786
19.740,66.1885
19.750,73.7419
19.760,71.5124
19.770,78.9840
19.780,74.0025
19.790,74.5356
19.800,73.8875
19.810,75.8942
19.820,71.2840
19.830,75.1675
19.840,74.6488
19.850,72.7247
19.860,74.2960
19.870,77.7457
19.880,83.2764
19.890,81.8703
19.900,83.6030
19.910,81.5762
19.920,80.7728
19.930,79.6086
19.940,70.2076
19.950,70.1487
19.960,85.0098
19.970,78.9712
19.980,71.9702
19.990,83.3599
20.000,81.6689
20.010,73.8934
20.020,73.6392
20.030,83.4380
20.040,77.3828
20.050,84.0721
20.060,85.3674
20.070,85.1923
20.080,83.9614
20.090,76.8935
20.100,79.1518
20.110,87.8832
20.120,77.4885
20.130,80.4128
20.140,79.7567
20.150,76.7873
20.160,77.9207
20.170,89.0453
20.180,90.5250
20.190,90.3445
20.200,78.8480
20.210,87.3341
20.220,77.1869
20.230,87.6649
20.240,88.0652
20.250,91.0005
20.260,92.5506
20.270,88.7290
20.280,79.9749
20.290,89.4395
20.300,81.2162
20.310,92.3266
20.320,80.4071
20.330,81.9466
20.340,83.4870
20.350,82.7037
20.360,83.6852
20.370,79.8909
20.380,91.9082
20.390,79.3754
20.400,77.7603
20.410,86.3850
20.420,91.6233
20.430,80.3680
20.440,87.0527
20.450,83.6436
20.460,91.8366
20.470,77.2377
20.480,83.0779
20.490,90.5454
20.500,89.0052
20.510,87.1203
20.520,80.1515
20.530,78.8604
20.540,80.6158
20.550,88.4507
20.560,75.8870
20.570,75.8589
20.580,82.6785
20.590,78.9006
20.600,86.9285
20.610,76.7899
20.620,78.0112
20.630,79.8890
20.640,77.1152
20.650,88.5460
20.660,81.1035
20.670,79.9909
20.680,75.6610
20.690,81.5648
20.700,80.9868
20.710,77.6797
20.720,71.7753
20.730,75.7763
20.740,79.2517
20.750,74.1539
20.760,79.7862
20.770,84.9575
20.780,72.5976
20.790,82.1682
20.800,76.7502
20.810,70.6893
20.820,76.0706
20.830,76.9439
20.840,77.0112
20.850,72.8936
20.860,74.3284
20.870,76.0200
20.880,81.7390
20.890,67.2432
20.900,78.3382
20.910,74.6158
20.920,73.5574
20.930,66.8348
20.940,71.7074
20.950,70.2940
20.960,73.3675
20.970,69.7164
20.980,76.6944
20.990,72.9612
21.000,75.8590
21.010,70.0051
21.020,70.2540
21.030,79.6435
21.040,77.7638
21.050,77.7564
21.060,67.6020
21.070,77.4023
21.080,73.0031
21.090,78.8705
21.100,77.7991
21.110,73.9231
21.120,65.5403
21.130,77.3262
21.140,66.5413
21.150,80.0321
21.160,66.3854
21.170,78.0334
21.180,77.4191
21.190,66.9411
21.200,74.8709
21.210,77.4993
21.220,73.3429
21.230,71.6517
21.240,68.3253
21.250,67.3429
21.260,68.8181
21.270,82.8938
21.280,81.2728
21.290,79.6804
21.300,69.1674
21.310,78.3203
21.320,76.4979
21.330,74.5471
21.340,73.7665
21.350,80.5352
21.360,70.2152
21.370,73.3197
21.380,76.7068
21.390,80.9219
21.400,81.0744
21.410,85.9390
21.420,74.0380
21.430,84.6098
21.440,84.4850
21.450,75.6182
21.460,79.4887
21.470,77.2744
21.480,84.7363
21.490,84.2291
21.500,80.4950
21.510,76.8156
21.520,81.1810
21.530,87.6522
21.540,89.0781
21.550,75.0290
21.560,85.5151
21.570,84.1492
21.580,83.4401
21.590,77.3336
21.600,79.5929
21.610,78.1820
21.620,80.9787
21.630,77.4087
21.640,88.1682
21.650,89.6830
21.660,88.4111
21.670,90.7788
21.680,77.1782
21.690,84.1279
21.700,92.5923
21.710,79.1254
21.720,77.9474
21.730,82.1034
21.740,88.3828
21.750,83.8388
21.760,80.2488
21.770,78.4192
21.780,82.3415
21.790,84.1481
21.800,85.9710
21.810,83.1332
21.820,84.1142
21.830,80.2311
21.840,91.3349
21.850,82.5313
21.860,78.5144
21.870,77.7183
21.880,77.8482
21.890,87.1649
21.900,80.8901
21.910,87.3791
21.920,77.3827
21.930,82.9647
21.940,82.5635
21.950,85.2602
21.960,81.7737
21.970,80.9031
21.980,87.4414
21.990,78.0842
22.000,84.0467
22.010,75.2016
22.020,82.0312
22.030,82.2013
22.040,88.3972
22.050,81.6868
22.060,87.1565
22.070,81.1421
22.080,88.6449
22.090,76.6569
22.100,88.2455
22.110,82.0053
22.120,78.7708
22.130,82.4893
22.140,73.4123
22.150,73.6118
22.160,84.2818
22.170,84.3204
22.180,75.4449
22.190,71.5630
22.200,78.3003
22.210,78.6069
22.220,84.0529
22.230,73.3739
22.240,70.7845
22.250,78.9159
22.260,80.8977
22.270,75.3914
22.280,77.1142
22.290,70.6212
22.300,79.4329
22.310,79.5713
22.320,78.6814
22.330,70.8528
22.340,73.3352
22.350,68.6781
22.360,75.4397
22.370,73.2880
22.380,71.9456
22.390,78.0392
22.400,70.4510
22.410,81.3921
22.420,80.0714
22.430,79.5533
22.440,66.7683
22.450,70.7493
22.460,76.2500
22.470,74.4770
22.480,72.6473
22.490,72.7948
22.500,79.1782
22.510,79.8828
22.520,68.8400
22.530,76.5277
22.540,66.7062
22.550,65.8609
22.560,79.4267
22.570,76.0829
22.580,74.7493
22.590,70.2675
22.600,81.3076
22.610,80.5075
22.620,67.9451
22.630,72.9465
22.640,81.3122
22.650,81.8625
22.660,76.7369
22.670,77.6158
22.680,75.6195
22.690,70.3997
22.700,82.4718
22.710,68.7061
22.720,73.8286
22.730,83.7684
22.740,78.7879
22.750,71.4317
22.760,83.0029
22.770,74.6446
22.780,81.4333
22.790,80.0630
22.800,72.0073
22.810,76.5444
22.820,71.4331
22.830,72.8860
22.840,81.1250
22.850,86.7686
22.860,76.2445
22.870,75.7897
22.880,83.1403
22.890,77.6420
22.900,82.6737
22.910,78.4520
22.920,84.9689
22.930,86.6999
22.940,87.3439
22.950,86.4241
22.960,86.6172
22.970,86.6285
22.980,78.4663
22.990,88.7105
23.000,79.6574
23.010,89.8609
23.020,83.2166
23.030,77.0693
23.040,84.8374
23.050,81.1665
23.060,76.7464
23.070,82.0866
23.080,90.1115
23.090,82.6695
23.100,86.0064
23.110,80.8578
23.120,80.6446
23.130,82.9814
23.140,81.1632
23.150,86.6378
23.160,82.4502
23.170,79.9040
23.180,84.0269
23.190,90.4361
23.200,91.7564
23.210,87.7407
23.220,78.7799
23.230,93.2560
23.240,86.7551
23.250,91.6714
23.260,78.3046
23.270,84.3613
23.280,89.1530
23.290,83.7478
23.300,80.4442
23.310,84.2641
23.320,77.9335
23.330,85.4109
23.340,92.4629
23.350,91.1892
23.360,80.9294
23.370,77.4222
23.380,80.8911
23.390,90.1108
23.400,80.3037
23.410,87.0705
23.420,82.7311
23.430,80.1362
23.440,79.0747
23.450,90.3297
23.460,79.4523
23.470,80.8337
23.480,83.9998
23.490,81.6537
23.500,74.1998
23.510,78.4076
23.520,77.9160
23.530,80.2831
23.540,84.4817
23.550,87.5336
23.560,87.1765
23.570,79.3256
23.580,84.1272
23.590,80.1342
23.600,80.5464
23.610,81.6200
23.620,85.5174
23.630,78.9656
23.640,77.7533
23.650,74.7089
23.660,82.4367
23.670,79.2152
23.680,77.1197
23.690,76.1744
23.700,79.3663
23.710,75.2393
23.720,72.1584
23.730,71.1871
23.740,76.7636
23.750,70.2330
23.760,80.2766
23.770,81.1378
23.780,74.5172
23.790,80.7789
23.800,78.0204
23.810,75.4390
23.820,79.9484
23.830,77.8532
23.840,73.1878
23.850,78.7528
23.860,79.1845
23.870,77.4862
23.880,79.9244
23.890,67.4952
23.900,79.2019
23.910,69.7895
23.920,69.7790
23.930,68.7154
23.940,69.1997
23.950,66.6216
23.960,69.8565
23.970,68.5091
23.980,71.5711
23.990,71.6085
24.000,71.6755
24.010,74.5801
24.020,79.0970
24.030,71.4551
24.040,69.3368
24.050,71.9391
24.060,77.5856
24.070,77.2990
24.080,75.5781
24.090,71.4834
24.100,79.3825
24.110,82.1172
24.120,69.9100
24.130,79.9831
24.140,68.3133
24.150,74.2012
24.160,73.7173
24.170,72.3359
24.180,77.9704
24.190,82.3293
24.200,81.9243
24.210,79.2754
24.220,77.1065
24.230,83.7567
24.240,72.2614
24.250,83.5427
24.260,75.4784
24.270,75.9584
24.280,80.9816
24.290,84.8204
24.300,79.4335
24.310,84.9001
24.320,87.7959
24.330,74.6707
24.340,80.8244
24.350,87.6153
24.360,77.0758
24.370,78.8404
24.380,85.2904
24.390,82.8849
24.400,88.8688
24.410,83.2627
24.420,86.1511
24.430,87.0712
24.440,88.2538
24.450,77.5669
24.460,82.5518
24.470,89.6346
24.480,77.3045
24.490,90.2747
24.500,81.6181
24.510,79.9070
24.520,92.2740
24.530,90.6943
24.540,88.0824
24.550,86.2675
24.560,92.1848
24.570,90.2470
24.580,91.7143
24.590,92.2752
24.600,81.1964
24.610,91.0935
24.620,83.1696
24.630,82.9674
24.640,93.4240
24.650,78.9132
24.660,83.1070
24.670,93.2464
24.680,91.0127
24.690,86.0291
24.700,81.9580
24.710,93.1633
24.720,84.7938
24.730,87.3514
24.740,89.6404
24.750,88.8016
24.760,79.1598
24.770,83.2528
24.780,82.2943
24.790,82.9404
24.800,77.9287
24.810,91.8397
24.820,87.2607
24.830,77.9493
24.840,90.5698
24.850,88.3225
24.860,87.3270
24.870,89.7066
24.880,85.0586
24.890,83.2814
24.900,75.1055
24.910,85.0635
24.920,89.3454
24.930,82.0041
24.940,80.3454
24.950,79.0410
24.960,78.6131
24.970,81.8555
24.980,82.8796
24.990,77.3937
25.000,81.9327
25.010,77.3127
25.020,73.5448
25.030,83.1019
25.040,84.0989
25.050,73.1882
25.060,83.8345
25.070,78.1098
25.080,73.5868
25.090,73.3055
25.100,74.4116
25.110,83.3260
25.120,82.6694
25.130,69.1900
25.140,70.8772
25.150,79.4513
25.160,73.1760
25.170,75.2936
25.180,82.2866
25.190,69.9981
25.200,72.9555
25.210,74.8462
25.220,73.6940
25.230,69.8297
25.240,77.3411
25.250,76.1276
25.260,70.9122
25.270,67.1285
25.280,81.5318
25.290,73.0258
25.300,72.2316
25.310,71.5396
25.320,68.0401
25.330,78.4595
25.340,71.1465
25.350,70.0156
25.360,77.3541
25.370,66.6872
25.380,78.5503
25.390,70.3055
25.400,75.0076
25.410,70.9218
25.420,68.9509
25.430,73.4298
25.440,71.5515
25.450,77.1965
25.460,72.7843
25.470,76.8734
25.480,81.3407
25.490,77.6417
25.500,76.9624
25.510,79.0252
25.520,82.4729
25.530,81.9356
25.540,71.3818
25.550,71.9374
25.560,73.0344
25.570,70.5421
25.580,69.1501
25.590,78.0614
25.600,80.5709
25.610,75.1515
25.620,77.4891
25.630,78.4576
25.640,74.9411
25.650,79.9274
25.660,71.3211
25.670,75.8321
25.680,83.3257
25.690,78.8410
25.700,78.2469
25.710,84.9134
25.720,84.6607
25.730,79.8623
25.740,85.5227
25.750,85.4097
25.760,84.7269
25.770,85.8284
25.780,78.0722
25.790,76.9204
25.800,77.1188
25.810,84.1952
25.820,79.6786
25.830,88.9806
25.840,89.7222
25.850,79.5503
25.860,78.6250
25.870,85.4796
25.880,91.5548
25.890,78.5943
25.900,82.6529
25.910,90.3594
25.920,92.1620
25.930,92.0423
25.940,87.3505
25.950,82.8826
25.960,90.0957
25.970,84.4564
25.980,82.6227
25.990,90.1344
26.000,87.3010
26.010,90.5967
26.020,88.8161
26.030,83.6708
26.040,84.2535
26.050,82.3955
26.060,81.3719
26.070,79.2188
26.080,85.3196
26.090,91.8567
26.100,90.4410
26.110,88.6079
26.120,83.9533
26.130,78.4069
26.140,87.5245
26.150,82.7956
26.160,92.3596
26.170,82.3743
26.180,86.6443
26.190,90.6814
26.200,80.2548
26.210,87.4491
26.220,81.6744
26.230,80.6221
26.240,77.4194
26.250,89.6888
26.260,89.5853
26.270,76.3489
26.280,89.6136
26.290,79.7148
26.300,83.8472
26.310,88.1684
26.320,77.0029
26.330,80.0980
26.340,80.5316
26.350,76.7696
26.360,77.8165
26.370,78.0374
26.380,83.6043
26.390,77.8566
26.400,77.9177
26.410,72.9293
26.420,86.8980
26.430,76.8061
26.440,86.4249
26.450,83.3040
26.460,71.5580
26.470,75.3668
26.480,78.9128
26.490,72.4684
26.500,74.0233
26.510,76.2254
26.520,72.8878
26.530,81.8902
26.540,70.2684
26.550,70.4871
26.560,82.4776
26.570,75.6178
26.580,72.4340
26.590,82.2026
26.600,77.6348
26.610,78.2841
26.620,71.9427
26.630,77.3957
26.640,81.2003
26.650,72.6163
26.660,72.2746
26.670,78.2092
26.680,77.6775
26.690,69.7182
26.700,74.2373
26.710,79.3015
26.720,77.7491
26.730,68.9460
26.740,74.5260
26.750,68.2867
26.760,81.2223
26.770,67.9816
26.780,76.8834
26.790,72.2725
26.800,71.6452
26.810,78.4964
26.820,77.1641
26.830,73.7529
26.840,70.1405
26.850,73.2769
26.860,70.7090
26.870,74.2209
26.880,67.3622
26.890,70.9671
26.900,78.9938
26.910,77.6724
26.920,69.6122
26.930,68.4570
26.940,75.3427
26.950,80.5460
26.960,74.3007
26.970,73.7361
26.980,71.1963
26.990,74.4520
27.000,77.3591
27.010,78.4320
27.020,84.0699
27.030,76.9903
27.040,71.5086
27.050,74.0742
27.060,82.6337
27.070,78.7510
27.080,83.8489
27.090,73.1205
27.100,81.5212
27.110,81.9134
27.120,79.7720
27.130,81.9809
27.140,84.0096
27.150,81.2071
27.160,83.0910
27.170,83.3436
27.180,77.7236
27.190,80.4927
27.200,80.1787
27.210,78.9108
27.220,78.6340
27.230,78.7772
27.240,83.3826
27.250,88.4201
27.260,88.5599
27.270,84.0083
27.280,88.7049
27.290,76.1459
27.300,81.8408
27.310,83.9091
27.320,90.2824
27.330,91.9089
27.340,91.6155
27.350,80.1724
27.360,91.9456
27.370,92.4217
27.380,78.3008
27.390,89.7307
27.400,90.9882
27.410,91.4305
27.420,85.5109
27.430,86.0674
27.440,79.8134
27.450,92.5912
27.460,87.3763
27.470,83.0099
27.480,92.3306
27.490,92.1497
27.500,88.0899
27.510,83.2476
27.520,84.8176
27.530,78.3510
27.540,89.7308
27.550,92.1326
27.560,87.7455
27.570,80.3906
27.580,90.2896
27.590,80.3582
27.600,78.0637
27.610,89.8241
27.620,88.2189
27.630,78.3799
27.640,79.0554
27.650,77.3620
27.660,84.2792
27.670,83.8097
27.680,88.2976
27.690,82.8678
27.700,79.2962
27.710,91.0506
27.720,90.7671
27.730,84.7311
27.740,80.3418
27.750,75.7591
27.760,77.9584
27.770,76.5860
27.780,89.2906
27.790,77.1095
27.800,78.8370
27.810,77.7082
27.820,73.3019
27.830,83.8833
27.840,79.7435
27.850,81.9293
27.860,80.6779
27.870,84.7431
27.880,76.8283
27.890,79.6465
27.900,86.2619
27.910,75.3358
27.920,70.6383
27.930,83.3169
27.940,73.2737
27.950,79.8113
27.960,69.9604
27.970,70.6842
27.980,79.8480
27.990,81.0916
28.000,68.7510
28.010,70.0098
28.020,72.1897
28.030,81.4936
28.040,76.4875
28.050,74.4873
28.060,76.3996
28.070,81.3484
28.080,70.2891
28.090,76.5592
28.100,68.0236
28.110,75.9572
28.120,75.5569
28.130,70.2762
28.140,74.6534
28.150,76.7983
28.160,77.6173
28.170,67.8006
28.180,66.9493
28.190,75.1913
28.200,71.2679
28.210,76.9234
28.220,74.1174
28.230,81.1450
28.240,71.8194
28.250,78.2093
28.260,69.9448
28.270,78.8021
28.280,75.6305
28.290,76.2017
28.300,72.3204
28.310,68.9727
28.320,72.3283
28.330,77.0131
28.340,75.7929
28.350,69.9647
28.360,78.4369
28.370,82.6651
28.380,75.2197
28.390,74.2228
28.400,72.4670
28.410,78.7209
28.420,70.0170
28.430,76.6574
28.440,81.7243
28.450,81.8574
28.460,83.5416
28.470,70.3893
28.480,76.0900
28.490,76.3248
28.500,84.3720
28.510,78.6363
28.520,84.8905
28.530,85.7760
28.540,80.1394
28.550,83.3304
28.560,83.7401
28.570,83.7954
28.580,86.3234
28.590,82.1093
28.600,76.7857
28.610,84.1353
28.620,85.1401
28.630,86.8888
28.640,88.1672
28.650,86.9766
28.660,86.3378
28.670,79.7610
28.680,80.9683
28.690,87.4507
28.700,90.2093
28.710,91.2358
28.720,79.2504
28.730,76.3726
28.740,90.2828
28.750,76.6703
28.760,86.8828
28.770,80.2516
28.780,88.0520
28.790,90.8231
28.800,86.2921
28.810,85.3312
28.820,91.3661
28.830,88.8325
28.840,82.6185
28.850,86.1116
28.860,82.5240
28.870,89.2118
28.880,84.6502
28.890,92.9415
28.900,83.6842
28.910,84.1903
28.920,88.5459
28.930,93.1337
28.940,92.4015
28.950,90.8497
28.960,83.2713
28.970,80.3097
28.980,84.4429
28.990,81.1048
29.000,84.4400
29.010,83.1766
29.020,80.4353
29.030,87.3089
29.040,89.8174
29.050,82.1438
29.060,87.8658
29.070,80.9285
29.080,87.8433
29.090,87.9198
29.100,81.2108
29.110,82.5624
29.120,89.1694
29.130,90.7106
29.140,90.0615
29.150,87.1421
29.160,90.8619
29.170,86.1275
29.180,85.7145
29.190,77.6256
29.200,75.2301
29.210,87.3979
29.220,77.1140
29.230,73.9775
29.240,74.6535
29.250,84.4238
29.260,78.6150
29.270,84.1826
29.280,82.8208
29.290,86.0940
29.300,75.9119
29.310,73.5377
29.320,72.7623
29.330,86.1907
29.340,80.0755
29.350,71.9143
29.360,72.1199
29.370,84.1447
29.380,84.3565
29.390,78.8667
29.400,80.1694
29.410,83.2934
29.420,76.1151
29.430,74.4146
29.440,69.4218
29.450,76.9386
29.460,69.7108
29.470,80.3167
29.480,75.3560
29.490,82.5638
29.500,78.4223
29.510,74.8486
29.520,81.3105
29.530,76.2724
29.540,79.7361
29.550,73.9873
29.560,69.2482
29.570,67.1513
29.580,69.6785
29.590,77.0162
29.600,76.2852
29.610,70.0849
29.620,77.5473
29.630,79.0310
29.640,70.9745
29.650,67.4017
29.660,81.2906
29.670,68.6750
29.680,73.4692
29.690,66.3267
29.700,67.4097
29.710,67.8329
29.720,75.7840
29.730,80.6845
29.740,78.1327
29.750,76.8130
29.760,77.3243
29.770,78.4149
29.780,70.4998
29.790,76.3278
29.800,70.0608
29.810,67.9965
29.820,79.8591
29.830,78.5216
29.840,81.4051
29.850,74.1367
29.860,83.6557
29.870,80.8038
29.880,76.5101
29.890,82.7243
29.900,72.7783
29.910,82.2450
29.920,79.8482
29.930,84.0022
29.940,71.3176
29.950,83.9952
29.960,74.8026
29.970,83.6632
29.980,77.2447
29.990,74.2792
30.000,77.1885
30.010,81.7284
30.020,83.5620
30.030,80.6153
30.040,86.9334
30.050,82.1938
30.060,81.7638
30.070,86.4722
30.080,88.7545
30.090,91.6681
30.100,92.7661
30.110,98.1310
30.120,94.6602
30.130,103.1117
30.140,93.0024
30.150,90.9759
30.160,97.4991
30.170,95.6161
30.180,101.6019
30.190,106.5281
30.200,110.8637
30.210,110.3072
30.220,99.7630
30.230,103.3513
30.240,110.4744
30.250,102.6618
30.260,106.2743
30.270,119.3628
30.280,110.5107
30.290,109.9095
30.300,117.6160
30.310,116.4163
30.320,122.7034
30.330,115.9920
30.340,120.3780
30.350,125.3975
30.360,127.1694
30.370,123.1921
30.380,127.1225
30.390,122.6904
30.400,133.4846
30.410,127.6680
30.420,128.5090
30.430,134.2467
30.440,136.7144
30.450,133.5357
30.460,140.4902
30.470,143.7700
30.480,132.7107
30.490,145.2812
30.500,137.6023
30.510,146.0559
30.520,144.6569
30.530,138.3737
30.540,147.9508
30.550,152.2127
30.560,149.4441
30.570,151.6801
30.580,144.3755
30.590,143.7507
30.600,158.2901
30.610,151.3936
30.620,148.7831
30.630,149.8482
30.640,157.1183
30.650,162.9101
30.660,163.9689
30.670,159.4404
30.680,168.1740
30.690,157.2071
30.700,159.7765
30.710,162.1212
30.720,169.4883
30.730,167.8527
30.740,167.1131
30.750,174.0750
30.760,164.5382
30.770,180.1726
30.780,169.3046
30.790,170.1955
30.800,178.8670
30.810,182.7631
30.820,185.6655
30.830,180.9704
30.840,188.6729
30.850,188.8859
30.860,177.6249
30.870,181.4553
30.880,189.5025
30.890,186.2020
30.900,188.3562
30.910,190.5272
30.920,183.9367
30.930,192.1629
30.940,197.9281
30.950,189.2781
30.960,195.5422
30.970,195.9704
30.980,191.1674
30.990,194.8276
31.000,204.5869
31.010,199.8067
31.020,193.3777
31.030,202.1444
31.040,193.6571
31.050,198.7862
31.060,201.8023
31.070,206.1398
31.080,201.8857
31.090,194.7291
31.100,205.7952
31.110,196.6275
31.120,193.4973
31.130,198.4832
31.140,196.2114
31.150,201.1475
31.160,204.8397
31.170,197.4113
31.180,201.5722
31.190,201.7183
31.200,194.0469
31.210,198.1187
31.220,200.2171
31.230,198.2568
31.240,197.5809
31.250,195.3933
31.260,205.8698
31.270,197.4875
31.280,194.8775
31.290,208.3381
31.300,199.3534
31.310,194.3452
31.320,194.1376
31.330,196.6155
31.340,193.3395
31.350,199.9029
31.360,194.7050
31.370,198.8341
31.380,197.8826
31.390,193.0457
31.400,196.4606
31.410,199.5085
31.420,197.5416
31.430,206.3579
31.440,207.2804
31.450,196.6749
31.460,204.9746
31.470,196.8420
31.480,197.1894
31.490,201.4746
31.500,195.6863
31.510,195.0478
31.520,193.3125
31.530,205.0996
31.540,201.8113
31.550,194.4433
31.560,198.3386
31.570,199.6958
31.580,201.7385
31.590,196.5868
31.600,199.0741
31.610,200.3427
31.620,195.9165
31.630,203.5530
31.640,200.0183
31.650,198.5333
31.660,207.4440
31.670,205.8756
31.680,197.0877
31.690,204.1592
31.700,201.8753
31.710,197.6017
31.720,203.8331
31.730,203.5757
31.740,201.9708
31.750,196.0503
31.760,200.8424
31.770,203.4921
31.780,206.8103
31.790,207.4931
31.800,206.6965
31.810,200.1060
31.820,205.4850
31.830,208.0749
31.840,207.3263
31.850,203.7973
31.860,201.1986
31.870,205.6073
31.880,194.6232
31.890,198.2401
31.900,199.9929
31.910,195.3849
31.920,200.8062
31.930,199.1323
31.940,193.3051
31.950,198.2464
31.960,198.9858
31.970,194.8253
31.980,201.1122
31.990,204.6097
32.000,81.2601
32.010,90.5137
32.020,88.5418
32.030,88.9007
32.040,86.8201
32.050,83.6982
32.060,77.7476
32.070,77.3100
32.080,86.3470
32.090,76.5256
32.100,77.3771
32.110,80.7061
32.120,87.6797
32.130,82.8370
32.140,82.7343
32.150,76.2656
32.160,79.6329
32.170,85.9459
32.180,84.5794
32.190,79.7971
32.200,75.5863
32.210,76.0578
32.220,72.3693
32.230,78.2727
32.240,80.6618
32.250,78.7855
32.260,77.9932
32.270,69.8903
32.280,78.8952
32.290,76.7956
32.300,79.4182
32.310,78.1895
32.320,83.6143
32.330,80.5633
32.340,68.5686
32.350,76.9725
32.360,78.7051
32.370,80.7163
32.380,77.0879
32.390,78.8744
32.400,73.1893
32.410,67.3913
32.420,76.3631
32.430,80.7367
32.440,74.5784
32.450,68.5788
32.460,81.9233
32.470,67.8434
32.480,72.4644
32.490,77.4140
32.500,81.6825
32.510,70.2480
32.520,79.9404
32.530,74.7933
32.540,81.5531
32.550,68.6647
32.560,81.0684
32.570,80.1731
32.580,73.7460
32.590,71.4774
32.600,72.9354
32.610,82.1391
32.620,76.0598
32.630,71.0993
32.640,73.1298
32.650,75.9210
32.660,73.4032
32.670,83.0782
32.680,77.6153
32.690,79.6284
32.700,69.3854
32.710,75.3337
32.720,75.1833
32.730,72.0657
32.740,84.3716
32.750,76.0240
32.760,74.2453
32.770,73.1323
32.780,76.3412
32.790,78.9530
32.800,81.0271
32.810,76.7258
32.820,78.4561
32.830,75.5410
32.840,81.5622
32.850,78.5976
32.860,84.7565
32.870,76.8958
32.880,86.8083
32.890,74.5420
32.900,80.8059
32.910,84.7860
32.920,78.7198
32.930,81.7196
32.940,86.4127
32.950,86.7223
32.960,85.7974
32.970,77.8719
32.980,80.2652
32.990,89.4510
33.000,79.4211
33.010,91.8761
33.020,87.5724
33.030,91.4305
33.040,92.1974
33.050,88.6817
33.060,82.4653
33.070,88.1659
33.080,92.0179
33.090,86.0317
33.100,93.2128
33.110,78.3556
33.120,85.2316
33.130,80.0778
33.140,79.8998
33.150,89.4631
33.160,93.8773
33.170,88.8692
33.180,85.5558
33.190,81.4660
33.200,79.4766
33.210,79.2059
33.220,88.6090
33.230,90.2377
33.240,79.0470
33.250,89.9404
33.260,91.0110
33.270,80.0446
33.280,85.5456
33.290,92.4571
33.300,90.9888
33.310,80.0072
33.320,83.3580
33.330,82.6013
33.340,79.5268
33.350,82.9164
33.360,79.6518
33.370,83.4154
33.380,79.9156
33.390,90.7343
33.400,90.9812
33.410,76.8502
33.420,81.1527
33.430,86.6199
33.440,76.8678
33.450,80.0786
33.460,88.7819
33.470,75.5599
33.480,77.8211
33.490,88.5718
33.500,76.0625
33.510,80.6910
33.520,82.9340
33.530,75.2656
33.540,87.4549
33.550,75.2485
33.560,87.1587
33.570,74.0285
33.580,75.5556
33.590,74.7622
33.600,82.8388
33.610,80.5529
33.620,86.6577
33.630,84.2337
33.640,84.6195
33.650,83.4394
33.660,85.4412
33.670,74.5197
33.680,70.6872
33.690,80.4292
33.700,76.3665
33.710,74.0617
33.720,76.6362
33.730,81.5565
33.740,68.6807
33.750,77.5135
33.760,69.2499
33.770,82.8647
33.780,68.4912
33.790,72.2695
33.800,71.9174
33.810,69.0127
33.820,71.8612
33.830,67.3505
33.840,68.8038
33.850,76.5640
33.860,69.4054
33.870,79.8821
33.880,81.0867
33.890,75.1825
33.900,73.5085
33.910,70.7585
33.920,72.7252
33.930,67.7583
33.940,68.1441
33.950,67.3302
33.960,77.6317
33.970,76.2546
33.980,81.4522
33.990,77.6185
34.000,67.1609
34.010,67.7418
34.020,76.9285
34.030,76.6340
34.040,80.2965
34.050,72.7216
34.060,69.6689
34.070,70.2152
34.080,79.4944
34.090,79.0986
34.100,81.8480
34.110,78.3121
34.120,76.2559
34.130,77.6934
34.140,79.3970
34.150,74.1312
34.160,80.5600
34.170,77.8217
34.180,78.7666
34.190,80.4604
34.200,79.6214
34.210,71.6631
34.220,74.8991
34.230,79.1005
34.240,75.2504
34.250,85.1742
34.260,73.3328
34.270,77.4360
34.280,80.4854
34.290,88.3484
34.300,84.6267
34.310,86.5672
34.320,77.0504
34.330,80.6697
34.340,82.5499
34.350,78.8370
34.360,82.9611
34.370,81.2627
34.380,85.1286
34.390,78.0531
34.400,87.9107
34.410,83.6174
34.420,87.5886
34.430,88.8965
34.440,87.0657
34.450,82.5038
34.460,78.2302
34.470,90.4311
34.480,92.0130
34.490,83.5690
34.500,88.9980
34.510,85.7756
34.520,92.5051
34.530,82.0833
34.540,90.7301
34.550,78.9560
34.560,79.0181
34.570,83.4151
34.580,79.1333
34.590,86.8285
34.600,90.8220
34.610,81.1450
34.620,86.8149
34.630,82.5856
34.640,92.0523
34.650,85.0371
34.660,92.4235
34.670,88.1294
34.680,86.3762
34.690,84.7441
34.700,85.9553
34.710,82.3122
34.720,88.9506
34.730,86.1743
34.740,79.6172
34.750,85.7489
34.760,85.2658
34.770,78.3821
34.780,88.4851
34.790,80.6878
34.800,89.4191
34.810,84.5363
34.820,86.6116
34.830,88.5328
34.840,87.7470
34.850,91.9648
34.860,77.0582
34.870,81.9336
34.880,89.8120
34.890,77.0322
34.900,90.4371
34.910,82.1064
34.920,75.1161
34.930,77.7972
34.940,85.3330
34.950,86.6451
34.960,88.5739
34.970,82.8156
34.980,76.0787
34.990,87.4780
35.000,75.4889
35.010,83.5557
35.020,76.2883
35.030,81.4916
35.040,85.2450
35.050,79.9010
35.060,81.9529
35.070,76.3420
35.080,80.5902
35.090,76.2472
35.100,75.2280
35.110,70.9522
35.120,72.7356
35.130,83.3228
35.140,71.8784
35.150,69.8477
35.160,83.4268
35.170,72.8846
35.180,68.9931
35.190,75.3437
35.200,70.5992
35.210,78.3733
35.220,75.8515
35.230,76.1876
35.240,82.1258
35.250,79.7785
35.260,71.5771
35.270,73.9830
35.280,77.4102
35.290,73.1390
35.300,75.4550
35.310,81.1795
35.320,71.6838
35.330,67.8738
35.340,71.3226
35.350,79.2313
35.360,80.6503
35.370,81.9801
35.380,70.0431
35.390,68.3637
35.400,74.3992
35.410,80.9339
35.420,73.1425
35.430,67.6201
35.440,73.6034
35.450,70.0123
35.460,81.3568
35.470,68.0619
35.480,70.3613
35.490,80.3337
35.500,79.4996
35.510,80.6090
35.520,69.0029
35.530,69.5575
35.540,73.1419
35.550,68.8702
35.560,69.1965
35.570,75.2238
35.580,78.6189
35.590,72.6352
35.600,70.5536
35.610,85.3113
35.620,75.2812
35.630,79.7399
35.640,76.2085
35.650,76.8699
35.660,82.5424
35.670,86.0332
35.680,83.2900
35.690,81.4580
35.700,80.6198
35.710,76.3316
35.720,77.2193
35.730,85.2808
35.740,76.7419
35.750,84.5942
35.760,75.1361
35.770,83.1829
35.780,81.8524
35.790,80.7044
35.800,79.0288
35.810,76.7829
35.820,76.5646
35.830,75.9697
35.840,83.6744
35.850,88.3269
35.860,85.2118
35.870,80.7172
35.880,77.9261
35.890,87.0819
35.900,81.2405
35.910,82.3889
35.920,78.5199
35.930,84.1886
35.940,83.2005
35.950,79.7998
35.960,82.0574
35.970,83.1245
35.980,89.4819
35.990,94.1357
36.000,82.3059
36.010,94.1274
36.020,81.5589
36.030,83.5090
36.040,79.7865
36.050,86.7393
36.060,87.3655
36.070,85.0844
36.080,93.7848
36.090,88.5664
36.100,82.2311
36.110,85.6132
36.120,94.2973
36.130,82.1875
36.140,85.6796
36.150,92.3131
36.160,79.4068
36.170,80.6700
36.180,84.0147
36.190,93.2119
36.200,89.3403
36.210,87.4963
36.220,91.4085
36.230,89.9265
36.240,88.9049
36.250,80.4151
36.260,84.5162
36.270,91.2597
36.280,80.1171
36.290,85.2600
36.300,83.5189
36.310,89.2229
36.320,88.0563
36.330,85.2626
36.340,75.5097
36.350,86.0635
36.360,83.2655
36.370,82.0124
36.380,80.8635
36.390,74.2723
36.400,74.7163
36.410,84.4778
36.420,88.5141
36.430,81.9615
36.440,83.1407
36.450,78.0175
36.460,82.6927
36.470,83.3877
36.480,81.1176
36.490,84.6779
36.500,75.4611
36.510,79.1879
36.520,72.6973
36.530,85.6530
36.540,71.9191
36.550,78.8337
36.560,72.0446
36.570,78.4872
36.580,79.8804
36.590,75.2781
36.600,75.1104
36.610,83.9654
36.620,74.7940
36.630,75.5462
36.640,72.4865
36.650,68.6726
36.660,73.7559
36.670,70.7132
36.680,74.1237
36.690,69.5415
36.700,74.1532
36.710,77.4609
36.720,67.5217
36.730,73.9925
36.740,71.9290
36.750,80.9101
36.760,75.8342
36.770,72.8196
36.780,79.0175
36.790,80.6580
36.800,77.0457
36.810,68.3705
36.820,77.4127
36.830,69.2389
36.840,77.4716
36.850,80.3769
36.860,77.2407
36.870,73.6242
36.880,81.6943
36.890,82.1873
36.900,82.1141
36.910,80.6239
36.920,70.5483
36.930,74.5711
36.940,72.6225
36.950,70.3988
36.960,77.5663
36.970,69.5872
36.980,71.0494
36.990,73.2644
37.000,83.3053
37.010,74.9627
37.020,72.5665
37.030,76.8268
37.040,73.9473
37.050,73.5781
37.060,79.7390
37.070,74.4389
37.080,85.2305
37.090,74.8034
37.100,82.3113
37.110,78.8914
37.120,78.2440
37.130,87.9126
37.140,79.8604
37.150,87.0005
37.160,80.3821
37.170,74.6264
37.180,75.5884
37.190,80.9490
37.200,78.6199
37.210,81.3218
37.220,80.4107
37.230,82.7605
37.240,84.1413
37.250,75.9054
37.260,82.1689
37.270,79.8348
37.280,86.7087
37.290,91.1317
37.300,88.6557
37.310,77.5335
37.320,85.7963
37.330,92.0267
37.340,85.4974
37.350,85.1205
37.360,81.8880
37.370,91.0622
37.380,89.7321
37.390,90.3268
37.400,78.8153
37.410,86.7385
37.420,92.5433
37.430,86.7536
37.440,93.3124
37.450,88.6548
37.460,88.6624
37.470,91.8544
37.480,87.0632
37.490,81.4255
37.500,92.8973
37.510,94.3241
37.520,88.6825
37.530,91.9119
37.540,94.0185
37.550,82.6275
37.560,81.9777
37.570,86.4624
37.580,87.1210
37.590,79.5676
37.600,84.8029
37.610,88.4161
37.620,82.4763
37.630,80.5322
37.640,88.7130
37.650,92.2857
37.660,92.1857
37.670,89.1798
37.680,89.6524
37.690,87.5462
37.700,90.8277
37.710,79.1434
37.720,83.1833
37.730,81.5455
37.740,79.4071
37.750,87.5902
37.760,85.7665
37.770,89.9720
37.780,79.7352
37.790,85.9658
37.800,81.9848
37.810,88.8234
37.820,78.0141
37.830,76.2437
37.840,80.7037
37.850,76.7516
37.860,78.4021
37.870,74.2581
37.880,86.4954
37.890,87.0663
37.900,75.3199
37.910,79.3702
37.920,85.0498
37.930,80.1066
37.940,73.4434
37.950,82.3633
37.960,82.0326
37.970,75.7641
37.980,72.6996
37.990,72.7569
38.000,71.1924
38.010,80.8359
38.020,69.5374
38.030,76.9041
38.040,81.6472
38.050,75.5889
38.060,77.4496
38.070,79.5506
38.080,68.8014
38.090,78.0100
38.100,78.3270
38.110,69.6476
38.120,81.1995
38.130,75.3811
38.140,73.8307
38.150,70.5378
38.160,79.3522
38.170,75.8730
38.180,71.3048
38.190,70.9575
38.200,79.3467
38.210,78.5180
38.220,76.1659
38.230,75.3769
38.240,68.2030
38.250,77.3118
38.260,78.2544
38.270,70.0179
38.280,71.7747
38.290,80.4539
38.300,77.2181
38.310,70.5640
38.320,79.3377
38.330,79.0003
38.340,77.4562
38.350,78.1523
38.360,81.4584
38.370,72.0146
38.380,69.5137
38.390,70.3430
38.400,83.6574
38.410,82.5851
38.420,74.3612
38.430,75.2565
38.440,75.2009
38.450,81.5061
38.460,71.4345
38.470,78.8490
38.480,79.8971
38.490,84.5604
38.500,82.8538
38.510,85.8983
38.520,83.1896
38.530,80.0461
38.540,73.5201
38.550,86.3636
38.560,78.0662
38.570,80.7524
38.580,88.2112
38.590,76.6209
38.600,83.1539
38.610,79.7172
38.620,77.3432
38.630,77.1387
38.640,75.8508
38.650,78.4223
38.660,82.7731
38.670,87.3487
38.680,76.2721
38.690,78.9402
38.700,85.3523
38.710,81.5497
38.720,88.2551
38.730,91.1646
38.740,78.3817
38.750,87.3533
38.760,79.2578
38.770,83.1899
38.780,88.3506
38.790,88.7943
38.800,85.1255
38.810,83.8377
38.820,88.7692
38.830,82.7173
38.840,90.8938
38.850,91.3041
38.860,90.2553
38.870,85.3617
38.880,87.3739
38.890,90.7584
38.900,86.0889
38.910,94.2633
38.920,91.6396
38.930,93.4470
38.940,89.4773
38.950,81.8904
38.960,82.5104
38.970,87.3629
38.980,90.9115
38.990,86.1776
39.000,91.2037
39.010,89.3444
39.020,81.4848
39.030,91.2889
39.040,91.8456
39.050,82.9730
39.060,80.3104
39.070,88.4494
39.080,88.7359
39.090,86.8282
39.100,85.8913
39.110,87.2942
39.120,79.0984
39.130,85.1501
39.140,78.0687
39.150,83.8235
39.160,81.0700
39.170,87.7433
39.180,90.0669
39.190,78.3919
39.200,90.4418
39.210,76.7246
39.220,81.4370
39.230,82.3203
39.240,89.7764
39.250,87.1190
39.260,74.1474
39.270,86.1301
39.280,80.6244
39.290,87.2034
39.300,76.8676
39.310,79.1041
39.320,83.0665
39.330,79.0716
39.340,75.0917
39.350,72.8165
39.360,86.1334
39.370,76.8145
39.380,80.5891
39.390,75.4919
39.400,73.8462
39.410,75.4581
39.420,79.9405
39.430,74.6035
39.440,78.4605
39.450,78.6725
39.460,77.2947
39.470,73.7673
39.480,81.1769
39.490,79.3119
39.500,76.0296
39.510,76.2627
39.520,74.0630
39.530,80.7841
39.540,73.0534
39.550,70.8982
39.560,76.5454
39.570,69.2298
39.580,80.0886
39.590,72.6171
39.600,81.2469
39.610,73.7918
39.620,76.1606
39.630,82.2475
39.640,73.4528
39.650,69.1666
39.660,80.6750
39.670,81.6459
39.680,80.5547
39.690,72.0680
39.700,81.0771
39.710,69.4953
39.720,76.6412
39.730,80.7888
39.740,76.6491
39.750,73.1304
39.760,80.5438
39.770,76.0841
39.780,75.5610
39.790,69.3875
39.800,73.9938
39.810,80.2281
39.820,73.7912
39.830,73.5778
39.840,80.8042
39.850,77.1920
39.860,79.1032
39.870,83.8555
39.880,84.2540
39.890,79.5870
39.900,82.2900
39.910,71.4446
39.920,71.7593
39.930,72.3123
39.940,83.2000
39.950,77.2274
39.960,73.6414
39.970,77.2476
39.980,75.6497
39.990,88.1463
40.000,88.4154
40.010,81.3949
40.020,75.9716
40.030,78.5572
40.040,76.6446
40.050,80.5060
40.060,75.5091
40.070,78.0879
40.080,79.9797
40.090,87.6588
40.100,85.7019
40.110,77.3021
40.120,76.4495
40.130,84.2849
40.140,86.9873
40.150,89.0973
40.160,91.4224
40.170,80.7410
40.180,87.1608
40.190,82.4034
40.200,87.2845
40.210,89.0083
40.220,82.6231
40.230,80.2709
40.240,92.8759
40.250,80.6208
40.260,83.7195
40.270,82.7357
40.280,79.7890
40.290,89.3250
40.300,85.1360
40.310,85.5068
40.320,84.8983
40.330,81.8871
40.340,83.2431
40.350,93.6132
40.360,81.4621
40.370,81.7473
40.380,81.9283
40.390,94.6534
40.400,89.6156
40.410,88.9902
40.420,80.8165
40.430,91.9304
40.440,84.2523
40.450,86.7190
40.460,91.5164
40.470,88.7848
40.480,82.2462
40.490,92.3522
40.500,78.9475
40.510,88.6014
40.520,86.4951
40.530,80.1592
40.540,91.0029
40.550,82.7722
40.560,80.5850
40.570,77.4464
40.580,90.3141
40.590,83.2303
40.600,78.8599
40.610,76.8544
40.620,86.5623
40.630,76.8645
40.640,87.4258
40.650,77.8907
40.660,84.1813
40.670,86.1057
40.680,88.4152
40.690,87.1420
40.700,80.4167
40.710,84.4235
40.720,85.8298
40.730,79.7191
40.740,82.7814
40.750,73.0761
40.760,80.0432
40.770,82.7772
40.780,77.3399
40.790,72.4164
40.800,77.7336
40.810,80.6564
40.820,78.1631
40.830,80.2567
40.840,72.7840
40.850,77.8556
40.860,72.3757
40.870,76.5161
40.880,72.6871
40.890,81.0565
40.900,83.7115
40.910,80.4150
40.920,75.9080
40.930,70.5895
40.940,76.5822
40.950,76.5084
40.960,83.2251
40.970,73.2601
40.980,70.8894
40.990,70.9912
41.000,71.0165
41.010,68.3339
41.020,79.8898
41.030,72.4407
41.040,71.1277
41.050,75.3433
41.060,70.5444
41.070,71.0828
41.080,72.8683
41.090,79.0464
41.100,76.8404
41.110,79.7858
41.120,81.9299
41.130,72.0189
41.140,76.7910
41.150,74.6250
41.160,82.8589
41.170,76.3173
41.180,77.4504
41.190,80.0743
41.200,80.9542
41.210,71.5022
41.220,74.4759
41.230,76.8669
41.240,81.5629
41.250,75.5648
41.260,79.3769
41.270,78.9941
41.280,78.8081
41.290,72.7258
41.300,78.4168
41.310,77.4520
41.320,79.6011
41.330,84.8286
41.340,77.4774
41.350,83.4313
41.360,73.0799
41.370,77.1630
41.380,86.4075
41.390,87.6765
41.400,75.9331
41.410,77.7485
41.420,87.7968
41.430,78.1569
41.440,85.0713
41.450,75.4568
41.460,80.3906
41.470,88.7091
41.480,85.7015
41.490,80.3517
41.500,83.2280
41.510,82.2138
41.520,88.1485
41.530,91.1549
41.540,88.7106
41.550,84.4497
41.560,76.8960
41.570,78.6974
41.580,79.9081
41.590,83.1864
41.600,87.0792
41.610,88.5865
41.620,79.5047
41.630,81.3533
41.640,92.7282
41.650,91.6716
41.660,92.9069
41.670,84.1403
41.680,80.3010
41.690,93.5045
41.700,80.9697
41.710,80.7833
41.720,79.9401
41.730,85.5808
41.740,90.9557
41.750,89.6214
41.760,84.1104
41.770,87.5719
41.780,85.9243
41.790,94.8593
41.800,83.8748
41.810,81.1360
41.820,81.6228
41.830,94.4867
41.840,81.7318
41.850,87.0018
41.860,88.3043
41.870,81.9187
41.880,89.7710
41.890,85.1421
41.900,89.5288
41.910,79.3380
41.920,84.4555
41.930,92.9986
41.940,91.6210
41.950,84.6137
41.960,90.4593
41.970,79.1903
41.980,91.3445
41.990,81.7768
42.000,92.5298
42.010,87.1368
42.020,78.7472
42.030,88.1704
42.040,81.0155
42.050,80.8149
42.060,77.8368
42.070,89.8085
42.080,87.8623
42.090,78.7770
42.100,85.1051
42.110,81.7843
42.120,82.5771
42.130,76.8941
42.140,88.7420
42.150,88.7103
42.160,82.2369
42.170,83.4850
42.180,78.3778
42.190,82.6082
42.200,81.8069
42.210,73.4941
42.220,82.9171
42.230,84.9698
42.240,85.8092
42.250,76.9091
42.260,76.8595
42.270,72.4188
42.280,71.6029
42.290,81.5736
42.300,82.4849
42.310,69.9724
42.320,71.7385
42.330,81.1648
42.340,82.0189
42.350,71.7001
42.360,72.3112
42.370,75.5316
42.380,75.4349
42.390,68.8524
42.400,82.6859
42.410,78.3002
42.420,72.7197
42.430,71.4460
42.440,70.5015
42.450,77.0192
42.460,67.9804
42.470,78.6508
42.480,74.1216
42.490,81.4202
42.500,75.5095
42.510,75.3658
42.520,68.6059
42.530,74.1126
42.540,78.5279
42.550,70.6615
42.560,68.1783
42.570,80.5147
42.580,80.5710
42.590,78.3079
42.600,75.7185
42.610,82.6235
42.620,75.8409
42.630,71.5074
42.640,79.6056
42.650,74.2245
42.660,75.7214
42.670,74.2899
42.680,69.8338
42.690,70.8560
42.700,84.8897
42.710,73.8987
42.720,82.9141
42.730,71.3554
42.740,78.4931
42.750,82.5970
42.760,80.4089
42.770,73.7401
42.780,77.4255
42.790,75.9510
42.800,74.3165
42.810,87.6806
42.820,79.3449
42.830,86.0260
42.840,73.4212
42.850,73.7912
42.860,84.3493
42.870,81.0544
42.880,89.4654
42.890,80.6918
42.900,76.1763
42.910,76.4125
42.920,86.6360
42.930,84.8428
42.940,90.0242
42.950,89.5787
42.960,83.0891
42.970,83.1112
42.980,77.1572
42.990,85.5569
43.000,88.7860
43.010,84.7976
43.020,83.1108
43.030,84.3328
43.040,81.4466
43.050,92.9453
43.060,90.4720
43.070,87.1280
43.080,81.5313
43.090,85.2513
43.100,81.3216
43.110,82.8552
43.120,86.5291
43.130,94.4835
43.140,85.7663
43.150,82.8567
43.160,81.9030
43.170,82.7250
43.180,87.3103
43.190,86.8944
43.200,84.9147
43.210,85.1844
43.220,88.2034
43.230,94.2863
43.240,80.3747
43.250,91.3703
43.260,85.5261
43.270,83.5632
43.280,85.9451
43.290,83.0574
43.300,94.2461
43.310,80.4491
43.320,81.1539
43.330,92.9239
43.340,83.0893
43.350,90.4757
43.360,86.8475
43.370,81.9492
43.380,89.0335
43.390,93.5318
43.400,82.1578
43.410,92.8508
43.420,87.2682
43.430,78.2028
43.440,78.0837
43.450,80.6565
43.460,89.8239
43.470,85.0394
43.480,89.4174
43.490,86.3553
43.500,81.6727
43.510,81.9071
43.520,86.5200
43.530,80.7178
43.540,89.1788
43.550,78.8017
43.560,76.8384
43.570,77.3854
43.580,83.1613
43.590,82.8929
43.600,81.5781
43.610,86.1437
43.620,79.3952
43.630,80.3813
43.640,84.9489
43.650,86.3690
43.660,85.1848
43.670,76.0237
43.680,74.9647
43.690,71.1615
43.700,75.2207
43.710,70.9116
43.720,75.8058
43.730,84.1818
43.740,84.0269
43.750,82.9651
43.760,79.2141
43.770,75.1778
43.780,78.9858
43.790,76.9831
43.800,74.6774
43.810,68.8564
43.820,76.7466
43.830,78.3525
43.840,75.9666
43.850,69.4808
43.860,78.7630
43.870,74.9950
43.880,72.4538
43.890,74.2913
43.900,78.8369
43.910,76.7711
43.920,77.7449
43.930,69.1002
43.940,78.6499
43.950,69.7515
43.960,68.7040
43.970,82.3172
43.980,78.9403
43.990,68.6524
44.000,76.4939
44.010,75.8880
44.020,77.7621
44.030,78.6038
44.040,77.9334
44.050,75.7803
44.060,83.0845
44.070,73.7000
44.080,72.4562
44.090,77.7179
44.100,80.4310
44.110,78.6807
44.120,70.7687
44.130,77.0820
44.140,71.0799
44.150,80.5682
44.160,80.3512
44.170,80.7187
44.180,71.5948
44.190,74.8932
44.200,74.2580
44.210,78.8334
44.220,83.6812
44.230,76.7915
44.240,84.8928
44.250,84.0113
44.260,83.0661
44.270,80.3658
44.280,81.1668
44.290,86.9391
44.300,76.5033
44.310,81.9917
44.320,86.4654
44.330,75.8606
44.340,78.3193
44.350,87.1404
44.360,87.4090
44.370,87.1709
44.380,88.1450
44.390,79.8468
44.400,79.9003
44.410,83.4104
44.420,79.2310
44.430,82.5244
44.440,79.4918
44.450,91.5677
44.460,88.2107
44.470,83.8893
44.480,91.7810
44.490,80.4966
44.500,87.9661
44.510,90.5050
44.520,89.9296
44.530,85.4476
44.540,90.4113
44.550,79.9825
44.560,85.5398
44.570,87.0249
44.580,91.1227
44.590,91.1873
44.600,82.4165
44.610,80.2275
44.620,84.8982
44.630,91.7806
44.640,80.7308
44.650,90.9257
44.660,80.3173
44.670,87.2937
44.680,87.1650
44.690,87.7802
44.700,87.7568
44.710,79.7288
44.720,88.0486
44.730,94.1341
44.740,85.5147
44.750,85.6945
44.760,91.1480
44.770,93.5683
44.780,82.6184
44.790,93.0643
44.800,88.3455
44.810,87.1188
44.820,81.5188
44.830,79.9425
44.840,84.8310
44.850,82.2524
44.860,88.1658
44.870,88.6222
44.880,90.4163
44.890,91.7651
44.900,87.5697
44.910,82.0815
44.920,90.4159
44.930,81.4262
44.940,82.8871
44.950,78.8347
44.960,81.5483
44.970,84.3621
44.980,89.0087
44.990,81.5269
45.000,80.0078
45.010,80.4378
45.020,82.7434
45.030,86.4226
45.040,81.8530
45.050,83.2859
45.060,82.0636
45.070,96.6159
45.080,90.8957
45.090,85.6907
45.100,92.8769
45.110,97.0351
45.120,94.4351
45.130,101.2936
45.140,104.2237
45.150,105.0052
45.160,102.3009
45.170,107.9094
45.180,99.6580
45.190,97.4896
45.200,110.2063
45.210,111.6096
45.220,110.6936
45.230,103.4904
45.240,112.7307
45.250,109.6612
45.260,114.4957
45.270,119.8546
45.280,109.9524
45.290,115.3986
45.300,111.4681
45.310,124.9521
45.320,124.9516
45.330,114.4454
45.340,119.7557
45.350,118.3191
45.360,131.3359
45.370,132.8009
45.380,133.6955
45.390,134.1358
45.400,128.2972
45.410,134.5129
45.420,127.3830
45.430,138.5721
45.440,137.3140
45.450,135.3165
45.460,145.0425
45.470,133.0948
45.480,143.0377
45.490,144.4594
45.500,144.3656
45.510,148.5611
45.520,150.0844
45.530,150.6599
45.540,141.0033
45.550,141.5907
45.560,144.4502
45.570,147.3995
45.580,153.5411
45.590,148.0722
45.600,157.2579
45.610,156.5044
45.620,151.0318
45.630,164.1902
45.640,160.2177
45.650,166.4460
45.660,158.2355
45.670,168.6645
45.680,163.8499
45.690,164.8219
45.700,159.8811
45.710,168.9629
45.720,164.0480
45.730,171.0881
45.740,176.4714
45.750,168.3430
45.760,181.2717
45.770,174.0393
45.780,177.7944
45.790,184.2586
45.800,177.7381
45.810,186.8621
45.820,186.1721
45.830,190.4426
45.840,187.1512
45.850,186.1834
45.860,192.8814
45.870,195.5641
45.880,196.9570
45.890,192.4226
45.900,193.6698
45.910,186.6385
45.920,197.0127
45.930,195.1707
45.940,198.2912
45.950,196.3607
45.960,202.0481
45.970,203.1447
45.980,198.9361
45.990,202.9627
46.000,211.3914
46.010,203.3553
46.020,198.0827
46.030,211.0729
46.040,196.4295
46.050,208.3962
46.060,197.5689
46.070,201.7350
46.080,201.5007
46.090,204.3863
46.100,200.6645
46.110,203.0477
46.120,201.5157
46.130,197.6823
46.140,202.5538
46.150,203.3566
46.160,201.6552
46.170,203.5447
46.180,205.2746
46.190,205.6701
46.200,201.1727
46.210,198.8331
46.220,208.9410
46.230,198.7037
46.240,199.3613
46.250,200.8671
46.260,199.0370
46.270,198.8804
46.280,199.5839
46.290,209.2050
46.300,203.6213
46.310,205.8443
46.320,200.7028
46.330,196.4314
46.340,203.9727
46.350,203.0538
46.360,197.9302
46.370,196.5474
46.380,207.8393
46.390,206.0633
46.400,211.5826
46.410,200.4607
46.420,198.8490
46.430,205.3873
46.440,196.8871
46.450,206.5879
46.460,202.7750
46.470,204.1661
46.480,203.3511
46.490,206.0408
46.500,203.8907
46.510,206.8374
46.520,199.4407
46.530,211.1410
46.540,204.1852
46.550,206.7735
46.560,208.5225
46.570,211.2321
46.580,210.8157
46.590,203.9155
46.600,197.2158
46.610,205.9952
46.620,198.1962
46.630,206.6238
46.640,206.3232
46.650,202.3885
46.660,205.0785
46.670,196.6529
46.680,204.7547
46.690,198.9843
46.700,204.6186
46.710,209.0587
46.720,207.3382
46.730,198.9959
46.740,211.5459
46.750,199.3042
46.760,204.1662
46.770,200.3860
46.780,200.1293
46.790,207.7543
46.800,203.6561
46.810,198.1724
46.820,206.8156
46.830,201.6529
46.840,204.3090
46.850,197.5086
46.860,209.4357
46.870,210.1742
46.880,207.6428
46.890,206.7963
46.900,202.8955
46.910,204.3812
46.920,202.7523
46.930,205.6860
46.940,205.6854
46.950,211.2738
46.960,197.3363
46.970,202.3503
46.980,203.9975
46.990,205.3806
47.000,85.1439
47.010,81.3481
47.020,77.4737
47.030,78.9086
47.040,83.9741
47.050,86.1075
47.060,78.5697
47.070,75.5768
47.080,86.2321
47.090,77.6426
47.100,83.1797
47.110,75.6054
47.120,79.0390
47.130,79.1274
47.140,83.0526
47.150,80.1933
47.160,81.6977
47.170,88.6051
47.180,88.6463
47.190,75.8375
47.200,76.6427
47.210,89.7962
47.220,76.4843
47.230,91.4699
47.240,77.8844
47.250,81.8643
47.260,87.2416
47.270,90.6786
47.280,86.8568
47.290,86.9231
47.300,89.0480
47.310,84.2688
47.320,87.0507
47.330,78.5778
47.340,79.6671
47.350,86.4653
47.360,81.6676
47.370,88.2977
47.380,86.6562
47.390,84.0491
47.400,92.4392
47.410,94.4908
47.420,83.7459
47.430,86.7654
47.440,82.6094
47.450,83.5209
47.460,80.3615
47.470,92.2767
47.480,94.4376
47.490,87.9940
47.500,80.7984
47.510,81.4014
47.520,91.7853
47.530,85.2998
47.540,83.9613
47.550,88.5102
47.560,93.3993
47.570,82.8242
47.580,82.7247
47.590,83.3536
47.600,92.7323
47.610,92.0014
47.620,87.0399
47.630,90.7575
47.640,85.9717
47.650,88.3567
47.660,83.1622
47.670,79.7836
47.680,82.3297
47.690,82.8624
47.700,93.1163
47.710,88.7857
47.720,87.7083
47.730,77.6262
47.740,91.4370
47.750,89.2137
47.760,78.2496
47.770,84.1430
47.780,78.7248
47.790,90.5357
47.800,80.9245
47.810,78.6955
47.820,76.3455
47.830,75.8731
47.840,75.7296
47.850,75.8641
47.860,83.5659
47.870,74.5683
47.880,78.6762
47.890,76.7808
47.900,85.5915
47.910,72.7323
47.920,81.6484
47.930,85.5638
47.940,84.2549
47.950,71.7582
47.960,74.5598
47.970,77.2372
47.980,81.0636
47.990,75.8787
48.000,83.1761
48.010,75.5095
48.020,74.6265
48.030,72.9029
48.040,74.9918
48.050,81.8947
48.060,84.0726
48.070,72.2859
48.080,69.3917
48.090,73.9597
48.100,81.9796
48.110,73.2517
48.120,82.4689
48.130,76.0218
48.140,71.9148
48.150,80.0659
48.160,78.0318
48.170,82.3250
48.180,74.6484
48.190,73.7706
48.200,81.8512
48.210,71.2452
48.220,83.2728
48.230,76.0271
48.240,78.3053
48.250,73.2014
48.260,69.4876
48.270,70.7337
48.280,69.0437
48.290,76.6936
48.300,77.4181
48.310,79.3506
48.320,75.6007
48.330,80.0537
48.340,74.4153
48.350,70.0191
48.360,79.9321
48.370,72.8200
48.380,77.9233
48.390,72.0541
48.400,72.5333
48.410,83.9549
48.420,72.0509
48.430,85.5716
48.440,79.1227
48.450,86.2803
48.460,77.3932
48.470,78.6230
48.480,84.3457
48.490,82.8789
48.500,81.6555
48.510,86.9765
48.520,82.3589
48.530,86.8718
48.540,82.2926
48.550,82.3744
48.560,80.5492
48.570,81.9918
48.580,86.4224
48.590,87.4926
48.600,89.0979
48.610,79.1105
48.620,85.4093
48.630,80.2025
48.640,76.8949
48.650,86.9096
48.660,87.2930
48.670,87.4863
48.680,87.6291
48.690,84.4808
48.700,79.5915
48.710,80.5624
48.720,80.1377
48.730,80.6011
48.740,88.5996
48.750,79.1964
48.760,92.2217
48.770,81.8675
48.780,92.7222
48.790,86.7125
48.800,83.2904
48.810,81.2605
48.820,87.3344
48.830,94.1353
48.840,81.4144
48.850,92.4167
48.860,91.5837
48.870,90.5378
48.880,81.3419
48.890,94.4531
48.900,81.5906
48.910,91.8770
48.920,94.5392
48.930,91.4732
48.940,87.0577
48.950,91.8402
48.960,93.1134
48.970,82.4365
48.980,88.8111
48.990,89.2003
49.000,80.3257
49.010,92.6189
49.020,87.6737
49.030,80.3600
49.040,79.6681
49.050,90.3066
49.060,86.9458
49.070,84.7031
49.080,91.3830
49.090,94.1032
49.100,79.2893
49.110,92.5008
49.120,87.3273
49.130,90.0014
49.140,91.0546
49.150,92.1559
49.160,86.7515
49.170,90.0938
49.180,80.5664
49.190,80.4595
49.200,83.9388
49.210,82.9780
49.220,80.5302
49.230,80.1365
49.240,84.0106
49.250,77.0672
49.260,88.9963
49.270,88.0538
49.280,80.6226
49.290,79.0620
49.300,81.6492
49.310,87.2202
49.320,88.0161
49.330,88.2271
49.340,75.7495
49.350,74.3231
49.360,77.6612
49.370,72.1471
49.380,76.5318
49.390,72.1160
49.400,84.6338
49.410,83.4081
49.420,73.7881
49.430,72.7624
49.440,82.4304
49.450,76.8464
49.460,76.1879
49.470,80.0209
49.480,70.8582
49.490,76.0703
49.500,70.7756
49.510,78.2114
49.520,73.7600
49.530,69.4073
49.540,81.0267
49.550,81.3604
49.560,77.1358
49.570,73.4873
49.580,78.7924
49.590,81.9451
49.600,71.3021
49.610,82.5827
49.620,74.2833
49.630,76.5616
49.640,76.5248
49.650,81.5393
49.660,69.5055
49.670,69.1045
49.680,70.7349
49.690,75.5066
49.700,71.8697
49.710,77.1608
49.720,69.2831
49.730,79.9926
49.740,82.8502
49.750,77.1229
49.760,74.5049
49.770,77.3826
49.780,79.4023
49.790,82.2649
49.800,70.0758
49.810,79.4151
49.820,77.4370
49.830,78.1886
49.840,82.3802
49.850,76.8343
49.860,75.9788
49.870,73.9755
49.880,75.1687
49.890,71.8106
49.900,75.0479
49.910,83.6776
49.920,83.2010
49.930,79.9538
49.940,73.3625
49.950,77.2782
49.960,88.5850
49.970,84.2231
49.980,84.2161
49.990,78.7250
50.000,75.8066
50.010,81.6005
50.020,86.0791
50.030,83.1684
50.040,86.9087
50.050,76.7471
50.060,80.6617
50.070,87.5981
50.080,76.8179
50.090,80.9601
50.100,80.7304
50.110,89.8165
50.120,80.1863
50.130,85.7703
50.140,81.9381
50.150,86.5634
50.160,83.0712
50.170,89.3303
50.180,84.4214
50.190,91.7814
50.200,84.0759
50.210,79.9471
50.220,83.7052
50.230,80.9709
50.240,94.8770
50.250,81.3612
50.260,85.5267
50.270,82.7895
50.280,83.4927
50.290,89.1405
50.300,81.8792
50.310,80.4873
50.320,90.6012
50.330,85.8500
50.340,94.8362
50.350,95.8906
50.360,84.7217
50.370,82.8430
50.380,82.3226
50.390,83.0893
50.400,94.0072
50.410,91.6896
50.420,83.8502
50.430,84.9887
50.440,90.5542
50.450,83.2364
50.460,88.1968
50.470,89.6603
50.480,83.4114
50.490,83.9104
50.500,86.0222
50.510,89.4137
50.520,85.5026
50.530,79.4920
50.540,83.6637
50.550,78.7292
50.560,85.2708
50.570,81.6816
50.580,82.6845
50.590,85.5781
50.600,87.4101
50.610,80.2700
50.620,86.4406
50.630,79.7783
50.640,81.0940
50.650,76.6511
50.660,80.3955
50.670,85.1618
50.680,88.3244
50.690,89.4230
50.700,84.5973
50.710,77.0212
50.720,86.6524
50.730,77.9357
50.740,80.7968
50.750,84.0619
50.760,77.0908
50.770,81.6272
50.780,86.7282
50.790,76.2457
50.800,84.7426
50.810,72.3739
50.820,75.8190
50.830,82.8222
50.840,85.4011
50.850,81.1049
50.860,85.8808
50.870,82.9960
50.880,73.4530
50.890,70.5912
50.900,78.2992
50.910,76.4659
50.920,82.0757
50.930,78.1659
50.940,80.6439
50.950,70.2583
50.960,81.9049
50.970,82.4705
50.980,74.1611
50.990,74.3683
51.000,70.3162
51.010,73.4919
51.020,79.4584
51.030,82.4046
51.040,79.9911
51.050,69.8924
51.060,81.9384
51.070,69.0964
51.080,74.9866
51.090,73.1594
51.100,78.1171
51.110,72.7855
51.120,75.6290
51.130,68.4568
51.140,69.8663
51.150,83.1848
51.160,77.4987
51.170,82.4767
51.180,70.5931
51.190,77.4076
51.200,83.1687
51.210,75.0505
51.220,76.3141
51.230,80.5198
51.240,83.3707
51.250,70.0669
51.260,72.5188
51.270,79.7700
51.280,73.3529
51.290,78.6589
51.300,86.4121
51.310,75.6966
51.320,82.9682
51.330,80.5898
51.340,74.6065
51.350,75.8770
51.360,75.6418
51.370,73.3342
51.380,79.1520
51.390,88.6012
51.400,77.8508
51.410,81.8029
51.420,78.0631
51.430,89.2972
51.440,90.0304
51.450,82.0427
51.460,84.6888
51.470,79.3770
51.480,88.5901
51.490,79.8190
51.500,85.0140
51.510,89.8158
51.520,83.7552
51.530,85.2113
51.540,78.6794
51.550,79.1730
51.560,85.3042
51.570,79.3860
51.580,84.5097
51.590,88.2790
51.600,80.1168
51.610,89.9233
51.620,92.0818
51.630,85.3031
51.640,89.4128
51.650,94.1720
51.660,91.2641
51.670,85.6181
51.680,92.7838
51.690,92.0592
51.700,88.6769
51.710,85.6981
51.720,87.9030
51.730,84.0512
51.740,93.9500
51.750,90.5446
51.760,92.4625
51.770,83.6432
51.780,93.7475
51.790,89.0576
51.800,88.0902
51.810,88.1942
51.820,86.4221
51.830,80.8271
51.840,92.3682
51.850,85.9637
51.860,93.3545
51.870,83.3965
51.880,89.8771
51.890,88.3900
51.900,86.1305
51.910,84.8730
51.920,91.6163
51.930,79.4157
51.940,88.2243
51.950,94.1299
51.960,81.3146
51.970,83.0777
51.980,83.1441
51.990,79.2568
52.000,85.8345
52.010,88.3225
52.020,91.9201
52.030,89.1805
52.040,89.8862
52.050,80.6929
52.060,81.6134
52.070,83.5888
52.080,82.4633
52.090,79.1536
52.100,84.0389
52.110,75.8481
52.120,85.8562
52.130,75.7235
52.140,82.4082
52.150,84.3953
52.160,88.0819
52.170,76.4296
52.180,76.6199
52.190,75.1723
52.200,88.0175
52.210,77.4502
52.220,73.2078
52.230,83.4797
52.240,76.4145
52.250,72.9482
52.260,71.8518
52.270,72.0060
52.280,82.6675
52.290,80.5193
52.300,85.3733
52.310,85.0000
52.320,84.8360
52.330,82.6854
52.340,75.9347
52.350,84.2280
52.360,74.9532
52.370,81.7551
52.380,76.3368
52.390,80.3831
52.400,69.8226
52.410,70.6252
52.420,73.3541
52.430,73.4457
52.440,74.8903
52.450,80.3409
52.460,70.9525
52.470,72.0582
52.480,80.6656
52.490,78.7240
52.500,79.0223
52.510,78.9224
52.520,71.6723
52.530,74.0270
52.540,79.6800
52.550,75.0523
52.560,74.1126
52.570,74.0166
52.580,71.5617
52.590,74.9664
52.600,70.6591
52.610,77.0048
52.620,70.6847
52.630,71.1888
52.640,79.4507
52.650,81.2899
52.660,83.4959
52.670,74.0671
52.680,85.1099
52.690,83.6745
52.700,74.2618
52.710,77.9244
52.720,79.5334
52.730,75.8823
52.740,74.6441
52.750,73.2860
52.760,80.1666
52.770,74.4187
52.780,85.4238
52.790,77.2565
52.800,77.3772
52.810,84.5792
52.820,86.6308
52.830,76.0466
52.840,83.0373
52.850,89.2479
52.860,83.8706
52.870,83.1730
52.880,87.8380
52.890,87.3320
52.900,76.4709
52.910,81.8150
52.920,85.0800
52.930,79.6023
52.940,85.7285
52.950,82.0024
52.960,92.4075
52.970,83.4417
52.980,85.8161
52.990,79.0173
53.000,78.3190
53.010,86.6067
53.020,88.2862
53.030,91.7184
53.040,80.3552
53.050,84.6010
53.060,85.1685
53.070,90.0275
53.080,82.4497
53.090,91.8927
53.100,94.5976
53.110,91.5427
53.120,82.1113
53.130,94.5438
53.140,82.5406
53.150,82.0943
53.160,87.8297
53.170,94.0406
53.180,83.5435
53.190,91.1256
53.200,85.8377
53.210,84.3425
53.220,80.9817
53.230,89.3216
53.240,95.2701
53.250,90.7936
53.260,93.8623
53.270,93.2539
53.280,89.7167
53.290,81.6217
53.300,85.2844
53.310,86.4453
53.320,92.3557
53.330,89.9457
53.340,93.0019
53.350,93.1361
53.360,91.7168
53.370,82.6816
53.380,85.2442
53.390,88.6573
53.400,87.0751
53.410,83.8541
53.420,82.1118
53.430,86.6285
53.440,93.0653
53.450,82.3867
53.460,92.5885
53.470,91.8507
53.480,91.6827
53.490,85.0451
53.500,83.6246
53.510,89.6487
53.520,89.6157
53.530,79.1133
53.540,83.1028
53.550,87.8801
53.560,75.5417
53.570,89.6427
53.580,89.4878
53.590,75.2672
53.600,82.9960
53.610,78.7371
53.620,74.1454
53.630,77.9559
53.640,80.4506
53.650,77.9470
53.660,73.7665
53.670,73.2886
53.680,80.8240
53.690,80.4848
53.700,84.3903
53.710,71.6407
53.720,82.4433
53.730,76.6426
53.740,76.2581
53.750,70.8862
53.760,84.5261
53.770,81.1504
53.780,75.5646
53.790,78.1331
53.800,73.1984
53.810,83.3168
53.820,69.3231
53.830,70.9593
53.840,82.5268
53.850,71.6673
53.860,72.1519
53.870,79.2049
53.880,76.4658
53.890,79.1342
53.900,77.8934
53.910,80.0588
53.920,74.4531
53.930,69.0844
53.940,69.4950
53.950,74.6317
53.960,69.8216
53.970,77.0804
53.980,79.2984
53.990,77.3275
54.000,83.1822
54.010,77.2215
54.020,69.4210
54.030,70.6245
54.040,81.6155
54.050,71.8406
54.060,72.1887
54.070,85.0109
54.080,70.3600
54.090,69.9851
54.100,80.2922
54.110,76.0394
54.120,78.4652
54.130,76.4549
54.140,84.2746
54.150,80.6456
54.160,71.7434
54.170,77.2279
54.180,86.1815
54.190,85.3490
54.200,83.8981
54.210,75.2858
54.220,77.6074
54.230,74.0298
54.240,76.0585
54.250,85.9821
54.260,84.8467
54.270,83.8471
54.280,86.7448
54.290,86.4955
54.300,81.1628
54.310,84.1689
54.320,77.4696
54.330,90.0049
54.340,85.1112
54.350,87.5499
54.360,85.2585
54.370,91.3028
54.380,82.3855
54.390,83.2632
54.400,84.0491
54.410,87.9962
54.420,92.4384
54.430,90.6636
54.440,90.9414
54.450,84.7078
54.460,93.7831
54.470,86.3260
54.480,80.7159
54.490,81.5002
54.500,80.3472
54.510,82.1486
54.520,87.9742
54.530,80.3837
54.540,86.9842
54.550,94.0948
54.560,92.5144
54.570,90.0867
54.580,83.0495
54.590,95.1059
54.600,89.3126
54.610,86.1140
54.620,93.7356
54.630,92.2808
54.640,89.5954
54.650,88.1278
54.660,89.1267
54.670,93.4688
54.680,82.1534
54.690,90.9719
54.700,86.9386
54.710,83.0227
54.720,88.2268
54.730,85.3481
54.740,83.4023
54.750,92.9944
54.760,90.3637
54.770,80.9136
54.780,93.2455
54.790,90.9156
54.800,86.7611
54.810,86.2029
54.820,92.6089
54.830,81.3906
54.840,88.4376
54.850,82.5750
54.860,92.3643
54.870,78.4506
54.880,89.4170
54.890,92.9942
54.900,82.5919
54.910,89.3941
54.920,83.0506
54.930,87.0751
54.940,80.0427
54.950,89.7756
54.960,85.9126
54.970,79.8445
54.980,86.0767
54.990,80.1475
55.000,81.2446
55.010,81.2237
55.020,83.4576
55.030,84.3238
55.040,80.8465
55.050,81.0624
55.060,77.2768
55.070,88.2659
55.080,78.8502
55.090,84.1742
55.100,84.4528
55.110,83.0321
55.120,74.2548
55.130,86.0771
55.140,75.9841
55.150,82.4200
55.160,78.5468
55.170,71.7122
55.180,78.5893
55.190,84.9479
55.200,78.4032
55.210,84.6182
55.220,77.1325
55.230,73.7183
55.240,79.1807
55.250,78.8548
55.260,72.6320
55.270,73.1616
55.280,73.9164
55.290,81.8425
55.300,79.8367
55.310,75.3190
55.320,81.0322
55.330,68.7915
55.340,77.6095
55.350,75.7713
55.360,79.1136
55.370,69.8520
55.380,74.5611
55.390,75.7745
55.400,81.0397
55.410,74.6584
55.420,76.5500
55.430,83.2794
55.440,82.2651
55.450,83.6598
55.460,83.6427
55.470,80.9574
55.480,80.4407
55.490,81.9294
55.500,79.5330
55.510,72.9577
55.520,81.1126
55.530,76.9492
55.540,74.7723
55.550,84.0131
55.560,81.2179
55.570,82.6419
55.580,76.1432
55.590,72.9982
55.600,79.9931
55.610,80.2868
55.620,76.8267
55.630,85.9179
55.640,74.0129
55.650,76.7373
55.660,74.6312
55.670,84.5508
55.680,80.5736
55.690,76.8526
55.700,89.7669
55.710,75.9346
55.720,86.3971
55.730,78.9250
55.740,84.3560
55.750,90.0662
55.760,90.6031
55.770,88.0698
55.780,85.8827
55.790,88.2370
55.800,77.4687
55.810,89.0694
55.820,91.7189
55.830,77.8592
55.840,83.6093
55.850,79.5161
55.860,81.4560
55.870,80.0947
55.880,84.7898
55.890,93.4274
55.900,92.4475
55.910,89.5169
55.920,84.3755
55.930,85.1987
55.940,92.1474
55.950,83.8831
55.960,95.2985
55.970,94.5354
55.980,93.5124
55.990,80.6584
56.000,80.9949
56.010,80.8971
56.020,89.5178
56.030,81.1041
56.040,91.6826
56.050,83.5050
56.060,93.5483
56.070,94.3935
56.080,94.5649
56.090,89.9453
56.100,89.0012
56.110,81.8270
56.120,90.8701
56.130,88.2546
56.140,83.4313
56.150,87.8107
56.160,93.5340
56.170,91.6647
56.180,82.1897
56.190,95.4073
56.200,92.5507
56.210,86.5248
56.220,87.6412
56.230,86.4956
56.240,88.2514
56.250,79.5909
56.260,88.6013
56.270,90.8552
56.280,81.3673
56.290,91.8008
56.300,86.8643
56.310,81.3197
56.320,78.2178
56.330,82.7044
56.340,85.7468
56.350,81.7623
56.360,88.9539
56.370,85.1896
56.380,88.3713
56.390,82.5330
56.400,83.3373
56.410,79.3242
56.420,89.2357
56.430,89.2999
56.440,89.8963
56.450,84.1222
56.460,78.1614
56.470,73.7300
56.480,82.9906
56.490,80.5968
56.500,78.0746
56.510,82.0461
56.520,81.6720
56.530,86.6533
56.540,81.4504
56.550,74.9944
56.560,79.5366
56.570,72.0437
56.580,78.1986
56.590,78.3746
56.600,74.2587
56.610,85.4808
56.620,81.8006
56.630,73.7882
56.640,74.2170
56.650,70.1138
56.660,84.3289
56.670,70.4385
56.680,83.6807
56.690,79.4827
56.700,72.9091
56.710,69.8793
56.720,74.3368
56.730,72.0666
56.740,84.2382
56.750,77.7720
56.760,81.4095
56.770,81.4515
56.780,69.1775
56.790,72.3999
56.800,82.3303
56.810,69.6116
56.820,71.0900
56.830,82.2083
56.840,81.9252
56.850,72.4146
56.860,72.2575
56.870,81.7794
56.880,80.7835
56.890,78.7463
56.900,78.3553
56.910,82.7895
56.920,77.2821
56.930,77.5439
56.940,75.8764
56.950,70.2768
56.960,75.7150
56.970,75.0035
56.980,77.9303
56.990,79.4429
57.000,75.1447
57.010,82.7321
57.020,84.1952
57.030,79.5881
57.040,82.7850
57.050,83.0938
57.060,74.7668
57.070,84.0463
57.080,83.4658
57.090,73.8745
57.100,86.6078
57.110,86.3982
57.120,77.6352
57.130,78.1511
57.140,89.6372
57.150,81.9300
57.160,89.5521
57.170,89.0986
57.180,82.1175
57.190,77.9564
57.200,84.7913
57.210,91.2716
57.220,83.2188
57.230,85.6651
57.240,79.8943
57.250,86.2477
57.260,80.1981
57.270,86.7322
57.280,90.8943
57.290,82.3398
57.300,81.4302
57.310,81.5383
57.320,89.6554
57.330,83.7020
57.340,91.1797
57.350,83.4456
57.360,82.2608
57.370,91.1984
57.380,81.9745
57.390,86.3390
57.400,90.6135
57.410,87.2062
57.420,84.4060
57.430,95.7886
57.440,91.2866
57.450,85.8118
57.460,82.2088
57.470,89.4435
57.480,86.1237
57.490,90.2218
57.500,93.6383
57.510,85.0174
57.520,82.5381
57.530,89.3553
57.540,86.3806
57.550,91.1923
57.560,95.3700
57.570,93.8296
57.580,92.6855
57.590,94.2361
57.600,81.1242
57.610,95.1314
57.620,90.3894
57.630,88.5717
57.640,91.8235
57.650,83.5469
57.660,87.7499
57.670,84.9064
57.680,85.1024
57.690,90.3196
57.700,86.6140
57.710,79.2001
57.720,86.7695
57.730,82.6490
57.740,92.2533
57.750,82.7635
57.760,87.3089
57.770,88.4226
57.780,92.2657
57.790,84.9343
57.800,80.7547
57.810,77.3187
57.820,77.9219
57.830,88.8124
57.840,88.9178
57.850,77.2084
57.860,81.5943
57.870,83.7211
57.880,85.2395
57.890,75.8015
57.900,84.6861
57.910,75.2318
57.920,85.9959
57.930,79.5329
57.940,87.4616
57.950,86.5488
57.960,73.6066
57.970,86.7209
57.980,78.0502
57.990,73.6220
58.000,73.1940
58.010,86.2112
58.020,71.3917
58.030,82.7323
58.040,85.2772
58.050,77.5416
58.060,81.8893
58.070,82.6070
58.080,70.9057
58.090,75.1053
58.100,75.3121
58.110,73.1753
58.120,75.7671
58.130,77.7419
58.140,77.9781
58.150,72.4837
58.160,80.2286
58.170,84.0818
58.180,80.4717
58.190,83.1406
58.200,73.7762
58.210,77.6969
58.220,69.7786
58.230,73.4921
58.240,72.5034
58.250,77.6887
58.260,79.7962
58.270,79.1698
58.280,83.6729
58.290,74.8308
58.300,69.3261
58.310,74.9544
58.320,73.2031
58.330,82.0528
58.340,83.3620
58.350,81.1421
58.360,77.9478
58.370,79.2013
58.380,73.9088
58.390,70.8356
58.400,76.4000
58.410,76.0599
58.420,81.0664
58.430,81.1155
58.440,85.3458
58.450,72.3768
58.460,74.8751
58.470,72.6660
58.480,77.5826
58.490,81.6730
58.500,81.2876
58.510,80.9650
58.520,77.0838
58.530,78.1908
58.540,76.5870
58.550,74.9487
58.560,85.3723
58.570,80.1897
58.580,75.9494
58.590,84.4387
58.600,88.1470
58.610,84.7340
58.620,77.7160
58.630,84.9993
58.640,92.1086
58.650,90.1369
58.660,80.3805
58.670,91.2715
58.680,90.3221
58.690,92.6310
58.700,80.7896
58.710,88.5600
58.720,93.2083
58.730,91.1287
58.740,89.8887
58.750,81.2780
58.760,88.3339
58.770,94.9507
58.780,88.4365
58.790,86.9821
58.800,84.5258
58.810,90.8653
58.820,89.9155
58.830,87.1893
58.840,95.6912
58.850,91.6282
58.860,89.2376
58.870,81.5840
58.880,89.6290
58.890,94.9692
58.900,92.9117
58.910,93.5918
58.920,82.1468
58.930,82.0802
58.940,85.0977
58.950,90.0431
58.960,93.9149
58.970,86.5586
58.980,85.0701
58.990,91.5712
59.000,88.3063
59.010,87.0412
59.020,91.8056
59.030,94.7434
59.040,88.0708
59.050,86.3119
59.060,89.4187
59.070,88.2075
59.080,93.7236
59.090,84.8771
59.100,88.7579
59.110,84.7806
59.120,82.7038
59.130,79.6557
59.140,88.7126
59.150,86.7160
59.160,91.7091
59.170,82.4684
59.180,90.7797
59.190,80.3973
59.200,85.6923
59.210,89.4241
59.220,86.7062
59.230,90.7485
59.240,85.8206
59.250,76.1125
59.260,88.1321
59.270,81.7779
59.280,80.8684
59.290,78.6975
59.300,81.1585
59.310,83.0822
59.320,80.0371
59.330,83.7445
59.340,82.1352
59.350,85.7902
59.360,79.3219
59.370,86.3711
59.380,79.3302
59.390,86.3372
59.400,85.5056
59.410,84.7639
59.420,77.5494
59.430,72.9523
59.440,82.7206
59.450,77.7760
59.460,72.2473
59.470,78.4101
59.480,76.3726
59.490,85.3695
59.500,70.1817
59.510,80.8884
59.520,81.0954
59.530,84.9294
59.540,81.2887
59.550,78.0537
59.560,77.5257
59.570,69.6657
59.580,71.1415
59.590,81.8069
59.600,76.9925
59.610,81.5019
59.620,82.3501
59.630,81.7901
59.640,70.4240
59.650,77.0412
59.660,80.9581
59.670,79.5088
59.680,74.6306
59.690,70.7414
59.700,75.3779
59.710,79.7862
59.720,78.9333
59.730,70.8986
59.740,69.5811
59.750,80.5388
59.760,80.2266
59.770,72.9004
59.780,73.1836
59.790,81.6294
59.800,80.4610
59.810,78.7235
59.820,73.5555
59.830,77.2698
59.840,72.3909
59.850,80.5398
59.860,83.7007
59.870,75.7550
59.880,83.9510
59.890,76.1385
59.900,74.3544
59.910,85.2028
59.920,77.9080
59.930,80.8188
59.940,74.9860
59.950,75.9314
59.960,81.5472
59.970,82.2243
59.980,87.4433
59.990,88.7091
