t_s,envelope_uV
0.000,63.0523
0.010,70.4907
0.020,61.7711
0.030,66.3230
0.040,64.3646
0.050,64.9675
0.060,72.1545
0.070,62.1209
0.080,71.8769
0.090,71.3908
0.100,71.3562
0.110,64.5384
0.120,61.6707
0.130,67.5481
0.140,72.6932
0.150,64.2988
0.160,63.5301
0.170,68.7202
0.180,70.7855
0.190,62.3535
0.200,69.0418
0.210,65.1378
0.220,66.7887
0.230,72.7646
0.240,69.2525
0.250,66.8256
0.260,69.0563
0.270,63.2077
0.280,73.3737
0.290,63.8756
0.300,69.9900
0.310,72.3920
0.320,69.2656
0.330,70.3074
0.340,67.4945
0.350,71.9626
0.360,63.5468
0.370,68.8601
0.380,68.4995
0.390,69.5825
0.400,65.0409
0.410,67.4060
0.420,74.3041
0.430,68.2037
0.440,65.7001
0.450,74.5314
0.460,72.0854
0.470,74.1537
0.480,72.0800
0.490,63.4559
0.500,71.8984
0.510,64.3346
0.520,63.3001
0.530,70.7105
0.540,69.7290
0.550,62.9446
0.560,72.3801
0.570,72.4309
0.580,61.3653
0.590,65.1120
0.600,66.0645
0.610,71.2879
0.620,69.0074
0.630,66.0122
0.640,71.5535
0.650,70.8578
0.660,62.7951
0.670,66.7288
0.680,69.5187
0.690,61.6022
0.700,69.4868
0.710,60.1103
0.720,64.9196
0.730,62.0092
0.740,62.7689
0.750,62.8443
0.760,60.3508
0.770,67.3608
0.780,60.8456
0.790,59.9462
0.800,59.7325
0.810,62.6366
0.820,63.5934
0.830,67.9710
0.840,64.1116
0.850,61.1319
0.860,58.8007
0.870,67.7824
0.880,62.4884
0.890,61.8292
0.900,61.6617
0.910,64.1089
0.920,63.5017
0.930,57.9524
0.940,65.3427
0.950,57.5292
0.960,58.9778
0.970,58.2760
0.980,54.6718
0.990,55.1169
1.000,57.0133
1.010,65.8359
1.020,53.4636
1.030,60.7382
1.040,55.8256
1.050,61.4575
1.060,53.8452
1.070,57.0473
1.080,65.3992
1.090,61.6253
1.100,55.9438
1.110,62.3915
1.120,54.6821
1.130,62.0696
1.140,59.9425
1.150,61.1223
1.160,64.4604
1.170,53.9321
1.180,55.1771
1.190,58.8235
1.200,61.5980
1.210,62.7060
1.220,58.5913
1.230,54.4325
1.240,60.4102
1.250,64.1436
1.260,55.9501
1.270,57.0886
1.280,66.2750
1.290,57.6688
1.300,62.3800
1.310,67.7388
1.320,64.4395
1.330,63.2643
1.340,62.3884
1.350,60.8599
1.360,61.3133
1.370,67.4662
1.380,65.9225
1.390,61.3133
1.400,64.5243
1.410,62.4385
1.420,62.8201
1.430,62.4667
1.440,68.0934
1.450,68.3844
1.460,70.6757
1.470,61.9389
1.480,63.9135
1.490,70.3972
1.500,61.4308
1.510,62.7525
1.520,66.8070
1.530,67.4655
1.540,68.0750
1.550,69.6371
1.560,73.1146
1.570,67.8833
1.580,71.9265
1.590,68.6199
1.600,74.2826
1.610,64.5245
1.620,70.5606
1.630,65.1739
1.640,73.1532
1.650,73.8945
1.660,72.9364
1.670,67.3028
1.680,69.8868
1.690,64.3870
1.700,63.4041
1.710,73.4457
1.720,68.6832
1.730,73.7002
1.740,63.7858
1.750,69.1200
1.760,69.6695
1.770,73.2632
1.780,74.2699
1.790,67.3138
1.800,71.9224
1.810,69.8894
1.820,64.7743
1.830,70.4438
1.840,71.4138
1.850,66.1574
1.860,69.5866
1.870,69.4489
1.880,70.0076
1.890,65.2887
1.900,72.0609
1.910,68.9066
1.920,68.2133
1.930,72.7637
1.940,66.7001
1.950,67.0964
1.960,70.9838
1.970,62.1902
1.980,63.2466
1.990,65.6155
2.000,70.5303
2.010,69.8698
2.020,68.8344
2.030,68.8020
2.040,66.3440
2.050,65.2159
2.060,71.3515
2.070,71.4162
2.080,69.2434
2.090,67.9661
2.100,62.5842
2.110,64.8921
2.120,59.0588
2.130,66.3109
2.140,65.5826
2.150,70.1220
2.160,62.4882
2.170,64.5463
2.180,63.3944
2.190,59.7168
2.200,58.3746
2.210,69.1872
2.220,66.4186
2.230,58.8900
2.240,56.3661
2.250,61.8891
2.260,58.7511
2.270,56.5985
2.280,60.6777
2.290,60.5982
2.300,63.6539
2.310,60.2365
2.320,60.4716
2.330,66.1719
2.340,58.8127
2.350,66.4195
2.360,57.8177
2.370,63.2915
2.380,66.0658
2.390,58.3555
2.400,64.3566
2.410,65.7273
2.420,61.7675
2.430,64.8431
2.440,56.3696
2.450,63.7724
2.460,58.0366
2.470,64.5241
2.480,66.0975
2.490,59.1420
2.500,54.3907
2.510,55.1292
2.520,62.3980
2.530,63.4427
2.540,60.8939
2.550,62.5347
2.560,58.6169
2.570,55.0496
2.580,61.7058
2.590,58.2351
2.600,55.6234
2.610,63.1092
2.620,57.5603
2.630,56.1136
2.640,55.2661
2.650,63.4412
2.660,58.4705
2.670,60.9518
2.680,64.9480
2.690,58.2983
2.700,61.4728
2.710,62.9873
2.720,63.4451
2.730,61.9712
2.740,57.2710
2.750,63.4458
2.760,65.7464
2.770,63.6387
2.780,68.7059
2.790,66.0824
2.800,67.3124
2.810,68.4645
2.820,68.6842
2.830,66.9201
2.840,58.1958
2.850,66.6336
2.860,64.7496
2.870,70.6603
2.880,68.2830
2.890,60.0186
2.900,72.0910
2.910,61.7577
2.920,63.2281
2.930,65.7159
2.940,66.4237
2.950,62.7933
2.960,72.9270
2.970,73.6804
2.980,67.4614
2.990,73.3334
3.000,64.0164
3.010,66.6319
3.020,64.2240
3.030,63.7294
3.040,63.7355
3.050,63.7211
3.060,73.1512
3.070,68.2459
3.080,64.7551
3.090,70.2408
3.100,69.9205
3.110,69.2752
3.120,71.9718
3.130,66.1364
3.140,73.3268
3.150,69.7500
3.160,71.6745
3.170,71.5175
3.180,73.5976
3.190,72.3753
3.200,63.9724
3.210,70.4702
3.220,70.8503
3.230,67.8730
3.240,65.8355
3.250,65.4152
3.260,68.7070
3.270,66.8031
3.280,63.9736
3.290,64.0871
3.300,71.4405
3.310,75.8142
3.320,72.1596
3.330,64.3719
3.340,75.2026
3.350,73.0238
3.360,62.9877
3.370,69.3006
3.380,64.6529
3.390,66.9309
3.400,71.8044
3.410,72.7482
3.420,69.3271
3.430,67.7381
3.440,66.4740
3.450,62.1960
3.460,69.4628
3.470,69.1202
3.480,72.5568
3.490,61.8333
3.500,66.6203
3.510,66.1036
3.520,67.9736
3.530,59.5037
3.540,63.9998
3.550,67.6957
3.560,59.9218
3.570,60.2557
3.580,66.2537
3.590,61.3834
3.600,60.8933
3.610,68.9888
3.620,61.5664
3.630,61.9193
3.640,58.9793
3.650,61.5271
3.660,59.2543
3.670,57.1573
3.680,68.1343
3.690,61.5155
3.700,64.0933
3.710,57.2994
3.720,63.1475
3.730,67.0691
3.740,55.4262
3.750,66.0456
3.760,64.4600
3.770,58.6760
3.780,66.0300
3.790,59.5578
3.800,55.9533
3.810,58.0323
3.820,66.1207
3.830,54.1435
3.840,63.9187
3.850,56.2146
3.860,62.2046
3.870,55.7192
3.880,61.9518
3.890,54.2904
3.900,57.7578
3.910,64.2348
3.920,65.7006
3.930,55.8880
3.940,60.0613
3.950,58.1006
3.960,65.4555
3.970,63.7029
3.980,58.5935
3.990,62.6238
4.000,60.0374
4.010,58.6276
4.020,54.5995
4.030,56.2878
4.040,64.9532
4.050,61.1875
4.060,54.3761
4.070,61.6106
4.080,60.1419
4.090,56.2385
4.100,56.3635
4.110,56.5476
4.120,61.3122
4.130,62.7490
4.140,55.8918
4.150,57.7763
4.160,59.3058
4.170,57.2885
4.180,66.1766
4.190,66.4542
4.200,66.1883
4.210,60.9490
4.220,65.6726
4.230,68.5406
4.240,60.7891
4.250,63.9417
4.260,67.2164
4.270,70.2015
4.280,63.2592
4.290,71.2176
4.300,61.9414
4.310,61.6948
4.320,71.6580
4.330,71.5325
4.340,71.5728
4.350,68.6447
4.360,66.1104
4.370,63.8625
4.380,65.1360
4.390,66.2722
4.400,71.4761
4.410,71.5734
4.420,62.6975
4.430,71.6469
4.440,71.1610
4.450,65.3913
4.460,72.1499
4.470,67.5499
4.480,64.5181
4.490,68.6763
4.500,70.0223
4.510,66.3527
4.520,65.0515
4.530,69.4545
4.540,72.3904
4.550,71.4413
4.560,68.3410
4.570,65.2855
4.580,72.9613
4.590,66.6137
4.600,73.2354
4.610,71.7803
4.620,65.1806
4.630,74.4688
4.640,65.5515
4.650,69.8403
4.660,73.9555
4.670,68.1704
4.680,66.7251
4.690,74.2106
4.700,72.3277
4.710,75.7424
4.720,76.0568
4.730,64.4288
4.740,65.6000
4.750,70.2561
4.760,70.0832
4.770,65.0290
4.780,70.7869
4.790,68.3873
4.800,75.5718
4.810,62.8906
4.820,73.0256
4.830,67.0871
4.840,72.5231
4.850,65.1457
4.860,71.1744
4.870,68.4515
4.880,74.1695
4.890,67.2913
4.900,68.6212
4.910,73.6137
4.920,64.9836
4.930,67.8451
4.940,60.9578
4.950,67.1395
4.960,66.0634
4.970,61.4795
4.980,62.2984
4.990,61.2635
5.000,71.0553
5.010,61.4273
5.020,69.9541
5.030,68.9504
5.040,65.0012
5.050,67.0986
5.060,67.4019
5.070,60.3156
5.080,63.6047
5.090,57.3229
5.100,65.6685
5.110,56.8683
5.120,64.5682
5.130,61.9175
5.140,66.3550
5.150,62.3083
5.160,65.2050
5.170,62.0737
5.180,60.5546
5.190,56.1641
5.200,67.3780
5.210,59.1263
5.220,61.0241
5.230,58.8759
5.240,59.2657
5.250,65.1192
5.260,56.1347
5.270,62.7060
5.280,58.7724
5.290,54.3726
5.300,62.5512
5.310,54.7531
5.320,60.1190
5.330,57.9779
5.340,64.1793
5.350,65.8167
5.360,64.4899
5.370,53.6768
5.380,65.3038
5.390,64.9621
5.400,63.9367
5.410,56.0094
5.420,65.2294
5.430,65.2861
5.440,56.4545
5.450,59.1290
5.460,55.4227
5.470,62.2724
5.480,61.4588
5.490,62.2476
5.500,58.2409
5.510,56.9047
5.520,67.0907
5.530,67.5538
5.540,65.6160
5.550,58.1744
5.560,62.7249
5.570,57.2646
5.580,64.2791
5.590,64.9682
5.600,58.3800
5.610,59.3601
5.620,64.9853
5.630,57.9750
5.640,67.2983
5.650,60.6611
5.660,66.6806
5.670,59.5014
5.680,67.1290
5.690,65.5885
5.700,68.3230
5.710,64.9669
5.720,63.2422
5.730,59.4178
5.740,59.6054
5.750,64.3388
5.760,68.8687
5.770,67.6503
5.780,72.4845
5.790,71.4159
5.800,64.8163
5.810,63.6565
5.820,64.9344
5.830,69.4756
5.840,65.8571
5.850,68.1828
5.860,73.5117
5.870,68.6193
5.880,67.6438
5.890,63.7585
5.900,75.1806
5.910,71.9120
5.920,71.4989
5.930,66.5728
5.940,64.2360
5.950,64.0855
5.960,67.9234
5.970,68.5930
5.980,64.0788
5.990,68.7215
6.000,75.6354
6.010,64.4118
6.020,70.7366
6.030,64.0818
6.040,71.0135
6.050,66.7623
6.060,73.5274
6.070,64.7519
6.080,76.6559
6.090,76.3914
6.100,70.3224
6.110,68.2603
6.120,65.7484
6.130,74.2474
6.140,72.0422
6.150,64.1957
6.160,75.1289
6.170,72.0583
6.180,76.2124
6.190,74.9943
6.200,63.2066
6.210,74.8376
6.220,75.4021
6.230,72.9293
6.240,69.4409
6.250,63.0086
6.260,63.6806
6.270,70.6636
6.280,74.5004
6.290,62.3288
6.300,73.2485
6.310,61.9494
6.320,65.1795
6.330,69.2317
6.340,67.3089
6.350,71.5160
6.360,71.8699
6.370,65.5158
6.380,67.0539
6.390,61.3429
6.400,64.5759
6.410,67.2644
6.420,65.6722
6.430,64.9613
6.440,61.7148
6.450,59.6744
6.460,64.8722
6.470,62.6957
6.480,58.0166
6.490,58.7533
6.500,57.3352
6.510,64.2445
6.520,67.0900
6.530,66.9650
6.540,62.3709
6.550,56.7668
6.560,68.2664
6.570,61.7680
6.580,63.7430
6.590,62.8260
6.600,66.9256
6.610,67.1187
6.620,58.3841
6.630,67.7167
6.640,66.4644
6.650,67.1676
6.660,57.4598
6.670,57.7034
6.680,56.3736
6.690,59.0950
6.700,57.2459
6.710,65.2777
6.720,62.0369
6.730,54.7535
6.740,56.8795
6.750,60.8513
6.760,61.6294
6.770,59.1350
6.780,61.6905
6.790,58.7051
6.800,64.0748
6.810,55.0966
6.820,66.5575
6.830,64.3485
6.840,63.7464
6.850,63.5555
6.860,62.3689
6.870,54.8445
6.880,57.0293
6.890,62.0291
6.900,60.7885
6.910,62.6275
6.920,60.0170
6.930,66.1533
6.940,61.6421
6.950,58.3739
6.960,68.1041
6.970,55.6211
6.980,63.0066
6.990,58.2771
7.000,61.8446
7.010,60.6567
7.020,62.5392
7.030,60.3124
7.040,59.4051
7.050,59.8215
7.060,68.3403
7.070,65.1410
7.080,59.3276
7.090,61.7618
7.100,60.2688
7.110,67.1485
7.120,69.0191
7.130,68.1376
7.140,63.2765
7.150,61.4603
7.160,72.1268
7.170,71.0047
7.180,71.3020
7.190,68.4810
7.200,71.7350
7.210,67.7360
7.220,61.0978
7.230,66.9729
7.240,62.5962
7.250,66.6308
7.260,67.0140
7.270,67.8566
7.280,74.2327
7.290,70.7894
7.300,65.8850
7.310,66.9456
7.320,63.7895
7.330,63.4494
7.340,67.9487
7.350,73.0358
7.360,64.2468
7.370,72.6488
7.380,67.5496
7.390,70.5356
7.400,68.0779
7.410,67.4923
7.420,66.5086
7.430,64.8080
7.440,64.9025
7.450,67.2433
7.460,66.7874
7.470,65.2507
7.480,74.3200
7.490,64.4044
7.500,74.6907
7.510,69.5421
7.520,67.1908
7.530,72.0544
7.540,64.3228
7.550,75.9650
7.560,72.0002
7.570,65.2693
7.580,75.8598
7.590,65.5191
7.600,65.3057
7.610,71.8920
7.620,65.0323
7.630,69.9692
7.640,73.0101
7.650,65.6359
7.660,73.4219
7.670,73.9447
7.680,63.8052
7.690,65.5724
7.700,65.3896
7.710,64.7842
7.720,62.7492
7.730,65.0004
7.740,71.9417
7.750,61.5436
7.760,66.8706
7.770,62.0519
7.780,67.1784
7.790,71.6329
7.800,66.1425
7.810,62.7436
7.820,70.5443
7.830,63.0193
7.840,66.6772
7.850,63.7784
7.860,71.3036
7.870,70.4290
7.880,66.6518
7.890,67.2254
7.900,64.3396
7.910,68.9284
7.920,61.8761
7.930,68.5635
7.940,59.6620
7.950,68.5829
7.960,67.4959
7.970,59.9232
7.980,62.7895
7.990,62.8241
8.000,63.0328
8.010,67.3409
8.020,55.6906
8.030,55.6264
8.040,65.5269
8.050,66.5857
8.060,65.3154
8.070,58.2383
8.080,57.7056
8.090,60.6405
8.100,61.7382
8.110,59.4909
8.120,58.5511
8.130,64.9180
8.140,65.2587
8.150,61.1511
8.160,63.9650
8.170,62.0716
8.180,57.3993
8.190,65.0925
8.200,60.3282
8.210,56.3770
8.220,56.0236
8.230,62.5842
8.240,62.6428
8.250,62.0272
8.260,62.9689
8.270,63.4241
8.280,55.8540
8.290,55.4517
8.300,61.6042
8.310,59.4187
8.320,64.1827
8.330,56.1456
8.340,59.6331
8.350,67.2111
8.360,62.9234
8.370,55.5104
8.380,62.3180
8.390,60.7526
8.400,67.7392
8.410,63.0351
8.420,58.8353
8.430,68.0930
8.440,60.4938
8.450,63.0621
8.460,58.6690
8.470,60.2716
8.480,67.1631
8.490,69.5572
8.500,62.5111
8.510,62.8617
8.520,68.5584
8.530,60.2735
8.540,60.4109
8.550,64.6442
8.560,67.8014
8.570,63.0813
8.580,63.8564
8.590,72.1802
8.600,70.4850
8.610,61.9305
8.620,71.6017
8.630,71.9566
8.640,68.0131
8.650,62.0435
8.660,62.0164
8.670,69.5144
8.680,67.9889
8.690,65.6758
8.700,62.9812
8.710,64.3767
8.720,65.9031
8.730,63.5711
8.740,67.6572
8.750,65.2535
8.760,72.1546
8.770,68.2475
8.780,67.6387
8.790,65.8716
8.800,69.6529
8.810,67.8536
8.820,63.8511
8.830,74.6418
8.840,68.6213
8.850,67.4606
8.860,65.1785
8.870,76.3153
8.880,70.1220
8.890,76.9423
8.900,71.3713
8.910,74.1840
8.920,75.5312
8.930,75.5876
8.940,67.4201
8.950,76.4141
8.960,75.5571
8.970,69.2219
8.980,72.5360
8.990,75.9771
9.000,75.8279
9.010,71.4678
9.020,65.3032
9.030,71.2613
9.040,67.5139
9.050,74.0815
9.060,72.6649
9.070,66.6980
9.080,63.9653
9.090,75.0932
9.100,64.8341
9.110,72.1449
9.120,65.9939
9.130,67.5570
9.140,73.5961
9.150,63.5664
9.160,62.0971
9.170,61.9227
9.180,63.4514
9.190,61.5266
9.200,73.8852
9.210,61.4686
9.220,72.1362
9.230,62.8479
9.240,63.6828
9.250,61.4908
9.260,70.3431
9.270,70.0583
9.280,71.2245
9.290,63.2673
9.300,71.2957
9.310,66.3697
9.320,62.2783
9.330,62.9193
9.340,70.2006
9.350,59.3366
9.360,67.3118
9.370,61.4047
9.380,60.7459
9.390,63.9295
9.400,58.9526
9.410,68.1589
9.420,60.0772
9.430,66.8160
9.440,62.1912
9.450,60.0285
9.460,57.8763
9.470,64.5097
9.480,59.6927
9.490,64.7155
9.500,61.4800
9.510,66.8032
9.520,65.0222
9.530,67.0462
9.540,60.7130
9.550,63.1615
9.560,58.2755
9.570,65.2257
9.580,59.4418
9.590,64.0562
9.600,56.6870
9.610,62.4408
9.620,61.7760
9.630,55.6720
9.640,62.7951
9.650,58.4243
9.660,54.8844
9.670,64.1946
9.680,57.2524
9.690,60.0396
9.700,54.4855
9.710,60.1379
9.720,65.2724
9.730,63.3914
9.740,55.9755
9.750,56.0846
9.760,62.1578
9.770,67.7409
9.780,60.3693
9.790,56.0174
9.800,58.9223
9.810,66.2157
9.820,63.0076
9.830,57.8813
9.840,64.2480
9.850,66.7932
9.860,58.9230
9.870,59.1678
9.880,58.5983
9.890,64.3561
9.900,57.4352
9.910,57.9735
9.920,69.2921
9.930,66.5329
9.940,57.9127
9.950,62.5135
9.960,64.8642
9.970,62.1517
9.980,67.2690
9.990,67.9429
10.000,69.7237
10.010,71.6542
10.020,60.9754
10.030,67.0255
10.040,71.0111
10.050,61.8189
10.060,63.0617
10.070,69.2713
10.080,69.8895
10.090,61.5967
10.100,73.9997
10.110,73.8923
10.120,73.0730
10.130,73.1032
10.140,66.7013
10.150,72.0288
10.160,62.7376
10.170,64.1266
10.180,72.0913
10.190,70.3085
10.200,73.3877
10.210,67.3247
10.220,75.8462
10.230,66.9183
10.240,75.4891
10.250,71.6397
10.260,64.8410
10.270,74.9809
10.280,75.7326
10.290,66.3379
10.300,74.2034
10.310,67.7474
10.320,75.0576
10.330,71.8475
10.340,72.1297
10.350,73.1221
10.360,72.0422
10.370,64.9946
10.380,72.9304
10.390,65.2029
10.400,73.6727
10.410,68.5808
10.420,72.3601
10.430,71.7736
10.440,69.2589
10.450,73.7128
10.460,66.3724
10.470,69.4476
10.480,70.1660
10.490,68.1525
10.500,63.4774
10.510,67.5965
10.520,68.7652
10.530,74.5749
10.540,73.6275
10.550,64.3671
10.560,73.1729
10.570,64.3902
10.580,67.5318
10.590,71.3833
10.600,64.2544
10.610,72.8408
10.620,72.5374
10.630,74.0582
10.640,70.0901
10.650,69.0390
10.660,64.6086
10.670,66.0429
10.680,70.6131
10.690,68.9702
10.700,61.2032
10.710,61.3746
10.720,70.9083
10.730,70.6858
10.740,66.7492
10.750,60.7187
10.760,69.5099
10.770,67.2963
10.780,62.1681
10.790,58.5867
10.800,60.7633
10.810,59.0765
10.820,64.5748
10.830,59.0806
10.840,62.6473
10.850,61.3817
10.860,58.8582
10.870,63.2030
10.880,66.1496
10.890,62.7531
10.900,63.4403
10.910,55.7280
10.920,61.0530
10.930,65.4081
10.940,66.5281
10.950,59.4829
10.960,66.8708
10.970,56.4010
10.980,63.5766
10.990,60.7080
11.000,63.8073
11.010,65.2610
11.020,58.7815
11.030,61.9666
11.040,57.0951
11.050,65.5215
11.060,67.0644
11.070,60.6707
11.080,56.2149
11.090,64.9444
11.100,64.2618
11.110,54.6435
11.120,60.7955
11.130,64.2863
11.140,67.1800
11.150,56.0939
11.160,54.9901
11.170,57.0508
11.180,63.8431
11.190,63.1640
11.200,55.6488
11.210,60.1811
11.220,65.5567
11.230,67.5285
11.240,57.0270
11.250,62.1364
11.260,65.4129
11.270,63.3486
11.280,67.5051
11.290,63.2890
11.300,67.8370
11.310,68.1908
11.320,68.8979
11.330,64.5231
11.340,69.3657
11.350,67.7652
11.360,59.0023
11.370,60.3209
11.380,70.6835
11.390,65.5682
11.400,68.7241
11.410,68.8631
11.420,63.9402
11.430,68.5834
11.440,68.5671
11.450,65.7788
11.460,65.8333
11.470,61.4547
11.480,72.1680
11.490,67.4102
11.500,61.5352
11.510,66.1441
11.520,73.1139
11.530,70.7995
11.540,69.6889
11.550,65.5966
11.560,69.8794
11.570,73.9771
11.580,64.3688
11.590,65.2356
11.600,75.2295
11.610,63.1117
11.620,64.6488
11.630,75.0877
11.640,67.4044
11.650,69.4983
11.660,65.0415
11.670,66.7674
11.680,67.2853
11.690,69.8691
11.700,76.9683
11.710,65.6533
11.720,75.5829
11.730,75.8750
11.740,69.7650
11.750,75.0656
11.760,71.5431
11.770,77.2688
11.780,76.2964
11.790,65.5712
11.800,72.9805
11.810,74.0780
11.820,66.0062
11.830,67.5790
11.840,76.1702
11.850,71.4947
11.860,76.3151
11.870,66.7784
11.880,68.0544
11.890,67.4002
11.900,71.4480
11.910,76.0158
11.920,75.8605
11.930,73.3222
11.940,75.1250
11.950,67.3714
11.960,73.9040
11.970,64.0829
11.980,70.3729
11.990,68.7846
12.000,71.7732
12.010,62.5194
12.020,74.8089
12.030,72.6029
12.040,61.8184
12.050,63.9311
12.060,72.4329
12.070,71.5536
12.080,68.8474
12.090,69.7451
12.100,66.6883
12.110,62.3861
12.120,64.4221
12.130,60.2065
12.140,68.3264
12.150,65.1278
12.160,64.4980
12.170,66.9371
12.180,67.2726
12.190,58.5686
12.200,61.2908
12.210,60.3072
12.220,62.7863
12.230,67.5185
12.240,58.5617
12.250,66.4305
12.260,64.0759
12.270,60.1594
12.280,58.3995
12.290,56.8413
12.300,57.1751
12.310,57.8646
12.320,61.8355
12.330,65.8922
12.340,56.9819
12.350,61.7149
12.360,65.2278
12.370,57.0964
12.380,63.0919
12.390,55.7385
12.400,58.1634
12.410,56.5746
12.420,66.1788
12.430,56.1696
12.440,63.1299
12.450,65.4889
12.460,62.6235
12.470,66.5543
12.480,58.1324
12.490,62.6768
12.500,60.2660
12.510,61.6568
12.520,61.2748
12.530,57.8559
12.540,58.2103
12.550,67.2518
12.560,66.2985
12.570,55.2597
12.580,56.8934
12.590,64.2453
12.600,55.9560
12.610,59.3518
12.620,60.8375
12.630,64.9594
12.640,56.0930
12.650,59.7123
12.660,61.3511
12.670,64.4781
12.680,56.2019
12.690,61.1457
12.700,63.3021
12.710,66.1174
12.720,67.1570
12.730,66.0546
12.740,63.2871
12.750,57.7461
12.760,57.7288
12.770,60.7625
12.780,59.2891
12.790,66.8316
12.800,64.8657
12.810,64.2061
12.820,64.2185
12.830,65.2140
12.840,62.2384
12.850,62.7855
12.860,71.5881
12.870,67.8458
12.880,65.4760
12.890,61.0255
12.900,71.8536
12.910,66.3182
12.920,72.1070
12.930,71.4054
12.940,68.4291
12.950,68.3762
12.960,72.5748
12.970,67.7373
12.980,66.3796
12.990,71.1239
13.000,74.5659
13.010,69.9473
13.020,75.3180
13.030,73.8801
13.040,69.5746
13.050,70.2698
13.060,76.1846
13.070,64.0211
13.080,69.3842
13.090,68.3470
13.100,75.3789
13.110,70.8893
13.120,73.2044
13.130,75.0236
13.140,68.2066
13.150,73.6461
13.160,66.7650
13.170,76.7919
13.180,64.6955
13.190,69.4680
13.200,76.0129
13.210,68.4639
13.220,69.2550
13.230,66.5152
13.240,74.8623
13.250,77.5967
13.260,74.1085
13.270,70.3668
13.280,72.0520
13.290,67.5890
13.300,69.7176
13.310,71.3182
13.320,73.1104
13.330,76.0540
13.340,73.7978
13.350,64.7332
13.360,70.8488
13.370,71.2343
13.380,76.3350
13.390,73.0425
13.400,73.2259
13.410,66.4523
13.420,66.2496
13.430,74.0667
13.440,68.3514
13.450,63.5139
13.460,74.0732
13.470,74.5737
13.480,62.9995
13.490,71.3311
13.500,67.7456
13.510,73.1493
13.520,70.6858
13.530,61.4107
13.540,71.0327
13.550,60.9401
13.560,63.9739
13.570,71.2598
13.580,69.4686
13.590,70.5208
13.600,63.6597
13.610,69.0871
13.620,65.9137
13.630,66.0368
13.640,58.5796
13.650,62.5553
13.660,62.7988
13.670,68.1194
13.680,57.7676
13.690,60.5675
13.700,68.9854
13.710,63.4170
13.720,65.6640
13.730,63.6272
13.740,60.9793
13.750,63.3016
13.760,60.0216
13.770,62.5081
13.780,59.5018
13.790,57.9917
13.800,56.7436
13.810,66.9607
13.820,61.2783
13.830,67.0173
13.840,55.4212
13.850,59.4450
13.860,67.2908
13.870,64.9705
13.880,66.6194
13.890,65.8194
13.900,66.0709
13.910,58.4226
13.920,65.5386
13.930,58.8947
13.940,55.6540
13.950,63.3073
13.960,59.4976
13.970,65.4704
13.980,56.4390
13.990,66.3308
14.000,56.0301
14.010,56.6473
14.020,58.2286
14.030,62.9820
14.040,57.0342
14.050,63.2709
14.060,59.5419
14.070,62.9902
14.080,67.7550
14.090,60.5305
14.100,66.2430
14.110,57.2757
14.120,61.0000
14.130,66.4620
14.140,67.5371
14.150,64.6080
14.160,67.8044
14.170,61.0523
14.180,67.9157
14.190,70.2783
14.200,60.6597
14.210,59.3033
14.220,67.8697
14.230,70.4719
14.240,59.8805
14.250,68.0090
14.260,66.1005
14.270,71.6292
14.280,68.6630
14.290,70.1911
14.300,64.1860
14.310,68.3153
14.320,60.8198
14.330,65.6825
14.340,64.0262
14.350,73.5409
14.360,62.5027
14.370,69.9574
14.380,72.7464
14.390,66.4092
14.400,73.4031
14.410,68.4197
14.420,69.3883
14.430,68.7190
14.440,69.4517
14.450,66.8068
14.460,76.1042
14.470,66.6120
14.480,72.4705
14.490,68.8918
14.500,73.2017
14.510,72.1940
14.520,73.7633
14.530,74.1886
14.540,67.1818
14.550,66.9774
14.560,75.5975
14.570,68.3108
14.580,76.4465
14.590,75.5098
14.600,74.1170
14.610,67.9784
14.620,73.2873
14.630,76.6255
14.640,73.0385
14.650,65.6400
14.660,75.0495
14.670,67.9457
14.680,76.8559
14.690,71.8563
14.700,76.4964
14.710,68.1191
14.720,75.5837
14.730,70.8395
14.740,68.0973
14.750,66.6678
14.760,77.0200
14.770,68.9949
14.780,69.9368
14.790,72.7635
14.800,69.1321
14.810,66.4387
14.820,68.4387
14.830,67.0285
14.840,66.7544
14.850,68.8057
14.860,69.3388
14.870,63.0047
14.880,71.0593
14.890,62.9443
14.900,65.9670
14.910,66.7267
14.920,67.0893
14.930,69.2541
14.940,64.1847
14.950,72.2876
14.960,62.5647
14.970,68.3239
14.980,60.5459
14.990,69.5039
15.000,61.5876
15.010,67.8339
15.020,62.7311
15.030,68.6126
15.040,70.1463
15.050,66.1018
15.060,69.4501
15.070,73.5084
15.080,79.8440
15.090,74.3143
15.100,73.5243
15.110,75.5420
15.120,78.8570
15.130,79.9430
15.140,86.5652
15.150,86.5720
15.160,79.0472
15.170,89.1062
15.180,80.3894
15.190,78.8199
15.200,91.6416
15.210,92.4748
15.220,83.5426
15.230,93.3203
15.240,89.4310
15.250,87.8718
15.260,93.6169
15.270,90.9557
15.280,99.7422
15.290,96.9356
15.300,97.1912
15.310,98.8862
15.320,98.3691
15.330,104.5374
15.340,103.5979
15.350,96.0847
15.360,102.6018
15.370,100.5680
15.380,105.7649
15.390,109.8786
15.400,107.3228
15.410,108.7284
15.420,103.0557
15.430,111.5565
15.440,108.1691
15.450,111.1211
15.460,109.7842
15.470,114.7226
15.480,115.4493
15.490,115.9908
15.500,112.3213
15.510,116.0397
15.520,122.4029
15.530,119.1858
15.540,122.3053
15.550,116.5672
15.560,122.0154
15.570,121.5665
15.580,121.2865
15.590,129.6085
15.600,129.8116
15.610,121.1896
15.620,125.9342
15.630,127.0931
15.640,134.4888
15.650,134.4920
15.660,129.5539
15.670,126.6629
15.680,129.9582
15.690,140.0530
15.700,136.1650
15.710,132.6502
15.720,138.6928
15.730,139.2453
15.740,142.6143
15.750,138.8123
15.760,146.0071
15.770,143.7903
15.780,145.6007
15.790,146.1235
15.800,147.5137
15.810,152.6156
15.820,154.1747
15.830,154.6493
15.840,147.4524
15.850,146.5631
15.860,157.5445
15.870,153.5500
15.880,160.2001
15.890,156.1715
15.900,154.0184
15.910,159.9597
15.920,156.0898
15.930,158.3807
15.940,157.2123
15.950,164.0293
15.960,155.8811
15.970,167.6592
15.980,161.7334
15.990,163.1843
16.000,163.9363
16.010,162.3884
16.020,171.4346
16.030,160.0929
16.040,159.3375
16.050,161.2850
16.060,169.9208
16.070,159.9645
16.080,166.2763
16.090,166.0263
16.100,164.3774
16.110,167.6520
16.120,160.1983
16.130,171.9793
16.140,162.1044
16.150,160.5481
16.160,161.5991
16.170,163.5011
16.180,167.8517
16.190,160.3341
16.200,163.4543
16.210,163.0068
16.220,159.9076
16.230,166.7664
16.240,169.1233
16.250,171.2686
16.260,160.1913
16.270,166.1915
16.280,163.7481
16.290,164.9011
16.300,167.4796
16.310,167.5915
16.320,170.0272
16.330,170.2385
16.340,161.6973
16.350,162.0556
16.360,164.3976
16.370,170.1515
16.380,165.6087
16.390,166.5831
16.400,162.6646
16.410,171.2388
16.420,165.5359
16.430,170.9210
16.440,163.1331
16.450,163.1631
16.460,162.3733
16.470,166.8166
16.480,166.2968
16.490,162.5180
16.500,168.5045
16.510,167.0237
16.520,164.0032
16.530,160.1350
16.540,168.2841
16.550,164.6718
16.560,168.0277
16.570,171.8163
16.580,163.0451
16.590,161.0622
16.600,165.0425
16.610,166.6711
16.620,163.0412
16.630,168.3133
16.640,162.3742
16.650,168.6971
16.660,167.6862
16.670,172.3490
16.680,162.3945
16.690,170.6575
16.700,170.4625
16.710,171.1861
16.720,167.9852
16.730,171.6519
16.740,164.7229
16.750,170.8685
16.760,169.1302
16.770,163.1078
16.780,166.1838
16.790,162.0107
16.800,161.3047
16.810,167.1970
16.820,163.1963
16.830,162.3155
16.840,163.8925
16.850,172.1805
16.860,170.8713
16.870,170.0582
16.880,168.2531
16.890,164.5580
16.900,161.7171
16.910,164.9897
16.920,169.5020
16.930,168.8835
16.940,163.5920
16.950,168.6764
16.960,170.5827
16.970,167.5939
16.980,169.4346
16.990,162.6458
17.000,61.7002
17.010,62.5861
17.020,57.6752
17.030,65.3851
17.040,61.5758
17.050,70.6479
17.060,70.7510
17.070,70.1289
17.080,63.5179
17.090,62.8688
17.100,70.2119
17.110,60.6340
17.120,66.0147
17.130,69.3851
17.140,63.7441
17.150,72.6074
17.160,70.3114
17.170,66.8007
17.180,70.6747
17.190,61.0904
17.200,73.7052
17.210,62.1889
17.220,71.5768
17.230,71.6038
17.240,72.2034
17.250,62.4529
17.260,68.1894
17.270,65.5562
17.280,70.5519
17.290,70.4643
17.300,73.5056
17.310,66.4242
17.320,64.6078
17.330,63.8789
17.340,66.9581
17.350,71.6211
17.360,76.2276
17.370,69.4185
17.380,72.0596
17.390,65.3794
17.400,65.7445
17.410,73.2747
17.420,72.3675
17.430,76.9482
17.440,77.5889
17.450,74.3274
17.460,68.6739
17.470,68.1166
17.480,68.8303
17.490,75.9879
17.500,72.0657
17.510,67.0098
17.520,69.0692
17.530,75.1085
17.540,73.2901
17.550,75.4239
17.560,76.4956
17.570,72.5322
17.580,69.0660
17.590,72.0813
17.600,68.8371
17.610,65.9633
17.620,69.4946
17.630,76.6667
17.640,66.5418
17.650,68.5515
17.660,72.2118
17.670,72.0697
17.680,70.8237
17.690,66.2431
17.700,75.4775
17.710,71.3583
17.720,71.7969
17.730,73.3487
17.740,64.0970
17.750,65.7447
17.760,71.6780
17.770,66.9539
17.780,71.5299
17.790,63.8029
17.800,70.4281
17.810,67.2396
17.820,66.2906
17.830,64.0450
17.840,66.8581
17.850,72.7484
17.860,62.7447
17.870,67.5860
17.880,62.1803
17.890,69.8426
17.900,61.7562
17.910,66.5520
17.920,66.6893
17.930,62.8644
17.940,61.1522
17.950,65.2732
17.960,61.9508
17.970,70.0053
17.980,63.8217
17.990,63.6298
18.000,57.5409
18.010,65.0849
18.020,59.6723
18.030,60.2075
18.040,61.0312
18.050,62.4036
18.060,66.1789
18.070,66.5989
18.080,68.4957
18.090,65.0723
18.100,59.3895
18.110,61.9096
18.120,61.7382
18.130,61.7366
18.140,62.8013
18.150,65.6382
18.160,62.6816
18.170,55.8558
18.180,55.7706
18.190,59.5483
18.200,60.2696
18.210,55.3978
18.220,65.1297
18.230,67.2459
18.240,58.4570
18.250,56.3214
18.260,61.8963
18.270,57.7392
18.280,65.9952
18.290,61.9495
18.300,65.4045
18.310,58.4481
18.320,55.5037
18.330,63.2273
18.340,68.2588
18.350,56.9762
18.360,67.2624
18.370,60.1855
18.380,61.0259
18.390,58.2876
18.400,58.0152
18.410,59.2025
18.420,56.9954
18.430,67.1886
18.440,69.0378
18.450,59.6285
18.460,62.1696
18.470,68.4583
18.480,69.9221
18.490,66.4860
18.500,59.6272
18.510,59.9077
18.520,68.7673
18.530,70.6238
18.540,64.5093
18.550,71.9075
18.560,62.5589
18.570,72.1011
18.580,69.3807
18.590,73.2753
18.600,66.4800
18.610,61.7609
18.620,71.3546
18.630,72.7886
18.640,67.7511
18.650,62.0612
18.660,73.8314
18.670,66.8922
18.680,68.5857
18.690,75.6021
18.700,71.3036
18.710,63.2687
18.720,72.8941
18.730,75.8831
18.740,73.9091
18.750,69.6163
18.760,68.5247
18.770,65.1531
18.780,69.9912
18.790,74.3516
18.800,70.6828
18.810,76.7296
18.820,66.2479
18.830,69.9654
18.840,72.8700
18.850,75.3404
18.860,70.5265
18.870,73.9272
18.880,70.2949
18.890,76.4730
18.900,73.3656
18.910,68.6197
18.920,75.6710
18.930,66.8362
18.940,68.1391
18.950,71.2476
18.960,73.4734
18.970,75.1613
18.980,68.6581
18.990,72.2021
19.000,73.5361
19.010,73.5231
19.020,70.6438
19.030,75.3345
19.040,68.4553
19.050,72.2602
19.060,69.5023
19.070,76.2248
19.080,65.3055
19.090,67.7648
19.100,64.4955
19.110,71.1456
19.120,72.0861
19.130,72.1594
19.140,73.9963
19.150,69.7434
19.160,75.1426
19.170,62.7609
19.180,71.0339
19.190,65.6066
19.200,72.2947
19.210,64.4206
19.220,62.1535
19.230,68.2765
19.240,67.5825
19.250,70.5159
19.260,72.9751
19.270,65.7034
19.280,72.7790
19.290,65.1985
19.300,65.2491
19.310,71.8593
19.320,68.2344
19.330,62.3153
19.340,70.3671
19.350,70.1067
19.360,66.7375
19.370,67.7405
19.380,70.3568
19.390,68.5102
19.400,62.6107
19.410,68.3916
19.420,64.7851
19.430,63.7400
19.440,62.1301
19.450,66.5214
19.460,65.0385
19.470,66.5938
19.480,63.4962
19.490,63.0787
19.500,57.6752
19.510,66.9832
19.520,60.0093
19.530,59.0142
19.540,56.8686
19.550,64.0799
19.560,62.6849
19.570,60.9249
19.580,60.0036
19.590,61.7291
19.600,65.4936
19.610,66.4333
19.620,63.7531
19.630,66.7813
19.640,66.4370
19.650,58.8491
19.660,64.2829
19.670,56.0990
19.680,62.3954
19.690,66.5800
19.700,65.7983
19.710,60.9860
19.720,61.5297
19.730,63.1299
19.740,63.4534
19.750,55.7400
19.760,67.6728
19.770,56.4703
19.780,59.2615
19.790,61.6044
19.800,66.3545
19.810,62.2991
19.820,69.0842
19.830,65.0700
19.840,62.6880
19.850,65.6743
19.860,68.5024
19.870,65.7377
19.880,61.2394
19.890,69.4827
19.900,65.3746
19.910,62.5755
19.920,64.8972
19.930,63.1299
19.940,69.0485
19.950,70.3256
19.960,65.0815
19.970,63.7291
19.980,66.2329
19.990,69.6667
20.000,66.3764
20.010,67.1703
20.020,64.6375
20.030,67.0251
20.040,68.4902
20.050,62.2502
20.060,64.7217
20.070,62.0564
20.080,68.7664
20.090,64.5969
20.100,63.7256
20.110,70.4034
20.120,75.5976
20.130,75.4574
20.140,76.1398
20.150,68.1105
20.160,72.1807
20.170,76.3433
20.180,69.0110
20.190,71.8657
20.200,70.4857
20.210,67.3406
20.220,71.3118
20.230,69.2882
20.240,65.7149
20.250,70.4787
20.260,73.9406
20.270,70.2868
20.280,73.4908
20.290,66.1770
20.300,77.4295
20.310,65.6835
20.320,68.4235
20.330,69.3105
20.340,74.2794
20.350,71.1065
20.360,75.5330
20.370,65.7565
20.380,75.7632
20.390,75.1301
20.400,74.9529
20.410,70.6267
20.420,68.1626
20.430,66.8501
20.440,70.3294
20.450,75.9407
20.460,67.2777
20.470,72.2718
20.480,69.6474
20.490,77.2814
20.500,70.8040
20.510,71.6688
20.520,67.5020
20.530,70.5101
20.540,68.8036
20.550,70.4734
20.560,65.5410
20.570,63.8609
20.580,66.5111
20.590,69.8987
20.600,65.2459
20.610,69.8092
20.620,70.2315
20.630,62.4188
20.640,71.2821
20.650,73.8946
20.660,73.9350
20.670,68.5521
20.680,65.0608
20.690,69.8523
20.700,64.6554
20.710,60.8543
20.720,67.0108
20.730,70.3065
20.740,69.2891
20.750,64.8442
20.760,67.8545
20.770,69.1424
20.780,59.2932
20.790,64.5673
20.800,59.1947
20.810,60.6853
20.820,68.5375
20.830,65.6560
20.840,64.1424
20.850,66.5394
20.860,68.5248
20.870,65.6402
20.880,67.4538
20.890,66.0106
20.900,62.7983
20.910,68.6802
20.920,67.0314
20.930,61.4178
20.940,66.3645
20.950,58.6517
20.960,64.8702
20.970,58.2752
20.980,59.9811
20.990,65.4540
21.000,60.0601
21.010,66.7472
21.020,62.7244
21.030,64.8577
21.040,60.2008
21.050,65.5875
21.060,60.0616
21.070,64.8744
21.080,67.4082
21.090,58.7023
21.100,66.6536
21.110,64.3610
21.120,65.4487
21.130,59.3181
21.140,55.7244
21.150,64.7852
21.160,61.2803
21.170,60.4045
21.180,64.3919
21.190,59.8602
21.200,61.1477
21.210,66.2461
21.220,64.0650
21.230,61.6675
21.240,66.6446
21.250,56.8500
21.260,61.2911
21.270,68.6424
21.280,66.8623
21.290,70.2701
21.300,65.6624
21.310,66.7478
21.320,61.6753
21.330,66.2165
21.340,58.5233
21.350,69.4187
21.360,64.9231
21.370,59.4813
21.380,66.2410
21.390,68.8072
21.400,71.0236
21.410,69.1906
21.420,62.8870
21.430,62.8990
21.440,65.1156
21.450,61.0966
21.460,69.4577
21.470,66.3308
21.480,73.8540
21.490,72.5049
21.500,72.7765
21.510,62.9866
21.520,71.7586
21.530,66.7469
21.540,63.9056
21.550,68.9352
21.560,66.0017
21.570,74.7852
21.580,69.6404
21.590,65.3609
21.600,67.1357
21.610,66.9420
21.620,73.3214
21.630,71.0825
21.640,66.1951
21.650,71.4079
21.660,72.7699
21.670,77.5037
21.680,74.4316
21.690,65.7279
21.700,68.3698
21.710,66.8061
21.720,68.9772
21.730,69.1950
21.740,68.7997
21.750,68.3112
21.760,72.9046
21.770,68.6291
21.780,70.5777
21.790,76.6214
21.800,67.8660
21.810,77.1958
21.820,77.9776
21.830,73.2721
21.840,69.3089
21.850,69.0108
21.860,74.0567
21.870,67.2027
21.880,75.4350
21.890,71.3039
21.900,68.3149
21.910,68.9687
21.920,66.1531
21.930,74.2976
21.940,69.1344
21.950,74.9911
21.960,64.6033
21.970,72.8460
21.980,73.8326
21.990,76.3541
22.000,74.7604
22.010,73.5185
22.020,70.8965
22.030,63.8924
22.040,70.0668
22.050,72.1543
22.060,71.7074
22.070,67.4729
22.080,68.6915
22.090,62.8681
22.100,68.0161
22.110,63.1681
22.120,63.6181
22.130,67.9784
22.140,65.5482
22.150,62.3811
22.160,62.5457
22.170,61.6051
22.180,71.2175
22.190,61.9216
22.200,60.7858
22.210,62.8684
22.220,67.5424
22.230,68.3513
22.240,63.0918
22.250,68.2860
22.260,69.2739
22.270,66.2894
22.280,70.1748
22.290,64.6525
22.300,59.2423
22.310,58.6187
22.320,65.1749
22.330,67.1086
22.340,60.0696
22.350,60.6450
22.360,65.1253
22.370,57.3346
22.380,66.3228
22.390,64.7271
22.400,66.9986
22.410,62.3952
22.420,68.0838
22.430,57.7119
22.440,63.3007
22.450,62.4803
22.460,55.8965
22.470,60.7254
22.480,62.5207
22.490,62.2134
22.500,66.5426
22.510,58.8726
22.520,61.2962
22.530,63.2679
22.540,65.6717
22.550,66.9036
22.560,63.9109
22.570,65.7893
22.580,67.2519
22.590,63.3144
22.600,60.6332
22.610,58.1438
22.620,68.8478
22.630,60.1748
22.640,66.8280
22.650,66.3844
22.660,60.8841
22.670,66.1823
22.680,58.0814
22.690,63.6426
22.700,65.8424
22.710,66.0850
22.720,57.9898
22.730,70.3709
22.740,67.9120
22.750,65.9798
22.760,59.1755
22.770,63.7855
22.780,64.3251
22.790,63.4295
22.800,70.0064
22.810,68.6252
22.820,62.1658
22.830,60.1687
22.840,62.7372
22.850,65.9528
22.860,65.8450
22.870,61.8407
22.880,62.3184
22.890,62.9283
22.900,71.6067
22.910,72.9308
22.920,73.0320
22.930,69.8246
22.940,63.0368
22.950,63.6647
22.960,69.8304
22.970,69.5538
22.980,69.7159
22.990,73.4079
23.000,70.5370
23.010,69.9812
23.020,67.5842
23.030,67.1368
23.040,67.8766
23.050,70.7482
23.060,72.4433
23.070,73.7031
23.080,72.0704
23.090,65.4239
23.100,72.8429
23.110,72.8695
23.120,66.3713
23.130,72.7253
23.140,72.2748
23.150,69.5932
23.160,76.9683
23.170,71.4766
23.180,76.0055
23.190,69.7096
23.200,69.3038
23.210,70.8942
23.220,77.1006
23.230,68.4496
23.240,65.9750
23.250,69.9767
23.260,71.1816
23.270,78.2478
23.280,65.8437
23.290,71.0234
23.300,76.1125
23.310,72.1596
23.320,70.2262
23.330,70.7925
23.340,72.0026
23.350,66.0354
23.360,76.3534
23.370,71.6716
23.380,76.8594
23.390,68.4179
23.400,73.3677
23.410,64.9633
23.420,71.6412
23.430,70.2446
23.440,75.3206
23.450,67.2904
23.460,68.0341
23.470,67.2893
23.480,64.2976
23.490,71.7255
23.500,74.4118
23.510,72.6204
23.520,68.0168
23.530,71.5810
23.540,68.4469
23.550,64.0212
23.560,66.4092
23.570,61.8167
23.580,67.9180
23.590,71.3896
23.600,61.6039
23.610,60.2605
23.620,71.5291
23.630,70.0068
23.640,69.6459
23.650,68.9355
23.660,66.8543
23.670,58.5787
23.680,66.2594
23.690,65.6491
23.700,64.7899
23.710,67.3905
23.720,68.7693
23.730,62.8609
23.740,67.0460
23.750,69.1613
23.760,63.7643
23.770,60.8044
23.780,67.0615
23.790,62.0677
23.800,56.3575
23.810,68.3644
23.820,60.8605
23.830,65.7862
23.840,64.8434
23.850,61.4444
23.860,65.2985
23.870,56.8625
23.880,66.7207
23.890,61.8410
23.900,56.9580
23.910,63.3205
23.920,64.3919
23.930,68.1148
23.940,62.3703
23.950,55.6798
23.960,58.5347
23.970,62.9015
23.980,58.9450
23.990,68.3343
24.000,64.3036
24.010,63.1474
24.020,57.9838
24.030,64.7383
24.040,61.0751
24.050,66.1004
24.060,57.1298
24.070,69.1502
24.080,56.9662
24.090,57.6143
24.100,63.0076
24.110,68.4863
24.120,63.4154
24.130,70.0745
24.140,66.9630
24.150,62.7802
24.160,66.9431
24.170,62.1245
24.180,67.3396
24.190,64.2588
24.200,63.0420
24.210,60.5318
24.220,65.5416
24.230,61.3476
24.240,69.4385
24.250,69.6611
24.260,64.9774
24.270,72.9661
24.280,69.9621
24.290,68.0216
24.300,70.1089
24.310,66.8729
24.320,68.7677
24.330,72.1088
24.340,70.7526
24.350,62.3965
24.360,68.0620
24.370,62.8372
24.380,63.3672
24.390,63.6131
24.400,64.3386
24.410,65.4640
24.420,65.6753
24.430,72.8000
24.440,64.0835
24.450,65.5842
24.460,72.2907
24.470,67.8560
24.480,71.5954
24.490,76.4583
24.500,67.5689
24.510,65.5879
24.520,65.3912
24.530,76.3603
24.540,74.2579
24.550,70.9675
24.560,72.2332
24.570,71.2090
24.580,68.7373
24.590,67.5567
24.600,74.8311
24.610,76.9841
24.620,68.0094
24.630,66.9496
24.640,69.3936
24.650,69.7688
24.660,68.7446
24.670,71.9350
24.680,74.8276
24.690,69.4995
24.700,69.8215
24.710,74.8971
24.720,68.1000
24.730,73.4234
24.740,67.8992
24.750,76.4128
24.760,66.9128
24.770,75.0251
24.780,76.4442
24.790,76.3338
24.800,65.6055
24.810,65.4313
24.820,76.9679
24.830,71.8873
24.840,67.4492
24.850,76.3774
24.860,72.7364
24.870,71.3941
24.880,70.5629
24.890,63.5983
24.900,72.9635
24.910,74.9283
24.920,68.8239
24.930,67.8975
24.940,67.8813
24.950,64.1452
24.960,67.0257
24.970,63.5432
24.980,71.2291
24.990,69.5162
25.000,72.7405
25.010,66.0025
25.020,63.5806
25.030,64.6001
25.040,67.5942
25.050,61.7724
25.060,67.7736
25.070,61.8556
25.080,63.4570
25.090,62.3673
25.100,66.3226
25.110,63.6377
25.120,65.3657
25.130,60.8388
25.140,70.7171
25.150,70.0465
25.160,58.1880
25.170,59.3082
25.180,66.5180
25.190,61.8326
25.200,58.1269
25.210,58.3493
25.220,66.9074
25.230,59.8035
25.240,66.0764
25.250,68.0743
25.260,68.4071
25.270,63.4282
25.280,60.2843
25.290,60.9247
25.300,59.6227
25.310,60.3720
25.320,57.2478
25.330,65.4800
25.340,66.3175
25.350,55.6663
25.360,60.1606
25.370,61.2160
25.380,66.8051
25.390,63.4944
25.400,61.7568
25.410,68.5354
25.420,57.0011
25.430,60.4659
25.440,65.5128
25.450,59.3436
25.460,67.1286
25.470,65.9034
25.480,65.8822
25.490,62.8815
25.500,59.3018
25.510,59.6256
25.520,57.2033
25.530,68.4448
25.540,68.4026
25.550,65.6947
25.560,66.9060
25.570,69.4431
25.580,63.0997
25.590,64.9794
25.600,59.8095
25.610,60.2642
25.620,70.2009
25.630,70.0662
25.640,71.5825
25.650,68.6229
25.660,66.2928
25.670,66.3967
25.680,66.8295
25.690,62.2448
25.700,62.4633
25.710,64.3468
25.720,62.3706
25.730,68.9119
25.740,68.3984
25.750,74.5583
25.760,73.3476
25.770,67.0691
25.780,71.1783
25.790,72.3744
25.800,75.2444
25.810,72.5593
25.820,69.3581
25.830,70.6079
25.840,65.2796
25.850,74.1705
25.860,66.4405
25.870,67.0999
25.880,71.8704
25.890,68.6844
25.900,73.9355
25.910,74.0431
25.920,72.0955
25.930,72.1842
25.940,76.6685
25.950,70.0540
25.960,76.4448
25.970,77.9214
25.980,68.5396
25.990,74.3995
26.000,72.7304
26.010,73.6355
26.020,74.7520
26.030,76.8158
26.040,74.4610
26.050,69.2404
26.060,77.7881
26.070,72.4514
26.080,69.7888
26.090,73.1549
26.100,69.0451
26.110,67.1605
26.120,72.7258
26.130,74.2520
26.140,70.7648
26.150,75.7041
26.160,67.8243
26.170,69.6005
26.180,76.6699
26.190,72.1092
26.200,76.9195
26.210,76.9655
26.220,74.4855
26.230,66.7368
26.240,71.1895
26.250,71.0390
26.260,73.5796
26.270,71.4578
26.280,65.0483
26.290,67.5094
26.300,71.2690
26.310,66.9029
26.320,66.6490
26.330,66.9264
26.340,65.9392
26.350,64.7487
26.360,68.2839
26.370,67.3142
26.380,74.6802
26.390,63.6462
26.400,69.6198
26.410,64.3711
26.420,70.1954
26.430,72.4839
26.440,61.3431
26.450,62.1983
26.460,65.9494
26.470,67.3273
26.480,70.5906
26.490,63.7469
26.500,69.7793
26.510,65.9980
26.520,70.5355
26.530,69.6498
26.540,65.3548
26.550,61.9390
26.560,59.1434
26.570,68.9545
26.580,64.1256
26.590,70.2573
26.600,64.8377
26.610,62.1328
26.620,69.0124
26.630,60.7512
26.640,59.4499
26.650,62.2282
26.660,58.7838
26.670,62.1543
26.680,60.8340
26.690,65.3669
26.700,64.5738
26.710,68.0030
26.720,59.4146
26.730,66.6990
26.740,62.0982
26.750,57.3095
26.760,58.6671
26.770,66.4865
26.780,67.5370
26.790,61.3442
26.800,57.6444
26.810,60.6069
26.820,59.7206
26.830,67.7475
26.840,58.4257
26.850,57.6123
26.860,63.7698
26.870,61.5400
26.880,57.8768
26.890,66.9460
26.900,62.6659
26.910,65.8854
26.920,68.5299
26.930,68.1285
26.940,60.0037
26.950,59.3515
26.960,61.9276
26.970,65.2865
26.980,66.0058
26.990,61.6513
27.000,64.8073
27.010,70.1776
27.020,62.3950
27.030,59.4085
27.040,67.4735
27.050,60.0084
27.060,62.0141
27.070,71.9279
27.080,64.5734
27.090,67.7321
27.100,63.8189
27.110,68.5602
27.120,71.5375
27.130,60.7189
27.140,65.6065
27.150,69.9754
27.160,68.4160
27.170,73.2184
27.180,62.3429
27.190,68.1037
27.200,68.9933
27.210,71.7538
27.220,66.1303
27.230,63.6054
27.240,70.0393
27.250,67.3874
27.260,66.4018
27.270,72.4311
27.280,71.6876
27.290,70.0941
27.300,65.2996
27.310,65.5637
27.320,65.0893
27.330,74.2221
27.340,71.1000
27.350,73.9379
27.360,68.3194
27.370,76.8063
27.380,75.3043
27.390,67.6896
27.400,73.6248
27.410,77.2959
27.420,75.8058
27.430,67.6447
27.440,78.2027
27.450,78.7257
27.460,66.6323
27.470,68.4107
27.480,67.6570
27.490,78.8406
27.500,77.9116
27.510,69.5091
27.520,72.0029
27.530,77.1962
27.540,71.1357
27.550,71.6783
27.560,76.2566
27.570,69.7651
27.580,70.5678
27.590,68.7252
27.600,71.2558
27.610,67.1707
27.620,72.7580
27.630,67.1526
27.640,71.7360
27.650,70.6193
27.660,67.3048
27.670,76.9329
27.680,65.8024
27.690,72.5947
27.700,68.9890
27.710,67.9608
27.720,66.8756
27.730,73.9421
27.740,75.0820
27.750,72.3197
27.760,67.7168
27.770,67.1331
27.780,75.2223
27.790,68.4487
27.800,74.9695
27.810,66.7119
27.820,65.8047
27.830,63.6328
27.840,69.0493
27.850,72.6437
27.860,70.6896
27.870,70.2574
27.880,67.9643
27.890,72.9615
27.900,66.5555
27.910,65.3740
27.920,71.5561
27.930,65.2781
27.940,66.1300
27.950,59.8002
27.960,70.5788
27.970,68.5446
27.980,62.1093
27.990,60.9924
28.000,63.6588
28.010,68.2773
28.020,64.2367
28.030,68.7859
28.040,59.2798
28.050,62.9429
28.060,62.0468
28.070,59.7428
28.080,66.4935
28.090,69.5418
28.100,62.8930
28.110,66.6723
28.120,68.5713
28.130,58.7523
28.140,56.6780
28.150,63.5999
28.160,65.1981
28.170,63.3673
28.180,65.4982
28.190,60.5452
28.200,66.9494
28.210,57.8351
28.220,56.3282
28.230,60.9034
28.240,65.5263
28.250,68.8677
28.260,61.2737
28.270,59.4666
28.280,60.2152
28.290,65.1155
28.300,64.4127
28.310,65.6363
28.320,65.5504
28.330,61.8885
28.340,64.5243
28.350,66.4009
28.360,62.1175
28.370,64.8456
28.380,59.3705
28.390,70.1687
28.400,69.7699
28.410,60.3337
28.420,68.7207
28.430,61.2397
28.440,65.1785
28.450,66.9210
28.460,58.6834
28.470,66.7603
28.480,66.6264
28.490,67.8466
28.500,61.6659
28.510,63.4726
28.520,61.6237
28.530,61.7709
28.540,70.3866
28.550,66.9027
28.560,71.8703
28.570,69.0281
28.580,63.9815
28.590,64.6932
28.600,63.0650
28.610,74.0467
28.620,71.7304
28.630,69.0129
28.640,68.1894
28.650,64.8970
28.660,63.4323
28.670,65.1476
28.680,67.1304
28.690,76.3370
28.700,67.1980
28.710,68.4395
28.720,64.3578
28.730,66.7332
28.740,68.0341
28.750,69.2942
28.760,65.3028
28.770,77.6858
28.780,73.4675
28.790,67.2868
28.800,73.1559
28.810,70.1068
28.820,78.4368
28.830,72.6304
28.840,67.3061
28.850,72.9936
28.860,75.6956
28.870,66.6410
28.880,75.2620
28.890,79.0826
28.900,72.4185
28.910,72.3650
28.920,75.2599
28.930,78.1043
28.940,66.8607
28.950,71.6874
28.960,66.9051
28.970,70.2431
28.980,70.8131
28.990,70.4887
29.000,74.0860
29.010,77.3544
29.020,67.7128
29.030,68.8104
29.040,75.2499
29.050,74.2269
29.060,65.8244
29.070,69.4968
29.080,71.4433
29.090,71.2181
29.100,74.1017
29.110,69.7543
29.120,66.2690
29.130,64.8278
29.140,75.1665
29.150,64.2411
29.160,69.5611
29.170,66.8523
29.180,64.8614
29.190,64.7800
29.200,66.8241
29.210,64.2266
29.220,64.0782
29.230,72.6628
29.240,67.2444
29.250,69.4452
29.260,68.8463
29.270,72.2905
29.280,72.1249
29.290,69.0291
29.300,66.4671
29.310,64.7352
29.320,70.6872
29.330,71.1164
29.340,62.7036
29.350,61.8868
29.360,59.6667
29.370,69.1600
29.380,69.2480
29.390,70.5146
29.400,61.4952
29.410,68.4346
29.420,61.7053
29.430,69.9788
29.440,63.2810
29.450,69.1520
29.460,67.9453
29.470,62.5164
29.480,64.1799
29.490,61.0427
29.500,67.7926
29.510,64.0213
29.520,68.1151
29.530,63.2232
29.540,65.9735
29.550,65.6450
29.560,56.7044
29.570,62.0605
29.580,61.9605
29.590,59.5189
29.600,63.2604
29.610,58.8462
29.620,65.6788
29.630,65.4456
29.640,66.6815
29.650,66.5979
29.660,58.7844
29.670,68.3145
29.680,63.1013
29.690,62.5826
29.700,60.5644
29.710,68.2656
29.720,59.1117
29.730,58.7249
29.740,63.3444
29.750,68.1211
29.760,58.0671
29.770,63.9132
29.780,63.5878
29.790,59.1175
29.800,63.1346
29.810,67.5361
29.820,69.5417
29.830,70.3811
29.840,58.5822
29.850,60.3701
29.860,70.3844
29.870,59.6773
29.880,60.0538
29.890,64.1300
29.900,64.5473
29.910,70.6999
29.920,64.3515
29.930,65.2278
29.940,61.1956
29.950,61.7867
29.960,67.0378
29.970,70.3688
29.980,73.6258
29.990,63.9200
30.000,73.3770
30.010,69.8093
30.020,73.6160
30.030,72.4997
30.040,68.1393
30.050,72.7777
30.060,78.8216
30.070,72.2779
30.080,81.1144
30.090,77.3189
30.100,76.1678
30.110,79.9002
30.120,77.9495
30.130,83.7550
30.140,84.7558
30.150,76.8268
30.160,80.7002
30.170,91.2450
30.180,90.2442
30.190,91.4559
30.200,85.6860
30.210,95.3410
30.220,91.2625
30.230,92.4618
30.240,97.6672
30.250,88.2709
30.260,88.4556
30.270,98.9822
30.280,94.7962
30.290,92.3903
30.300,96.0497
30.310,105.1403
30.320,103.8800
30.330,98.0706
30.340,106.4663
30.350,104.1482
30.360,97.9342
30.370,110.3021
30.380,105.7180
30.390,104.9937
30.400,113.1589
30.410,112.0084
30.420,115.0209
30.430,114.5094
30.440,113.5015
30.450,116.1830
30.460,112.0128
30.470,117.0849
30.480,112.5238
30.490,122.7149
30.500,120.1207
30.510,117.5618
30.520,126.7304
30.530,117.3501
30.540,121.4325
30.550,125.3374
30.560,121.3675
30.570,119.8566
30.580,124.3711
30.590,132.0724
30.600,129.3889
30.610,127.2327
30.620,136.3408
30.630,127.1722
30.640,135.0187
30.650,127.7408
30.660,134.3984
30.670,135.4054
30.680,136.8323
30.690,134.5117
30.700,135.7454
30.710,133.5845
30.720,144.5244
30.730,135.6737
30.740,141.2142
30.750,144.3988
30.760,150.6714
30.770,145.0161
30.780,146.9636
30.790,149.1031
30.800,150.9307
30.810,153.1035
30.820,145.0832
30.830,150.6646
30.840,149.0191
30.850,152.4348
30.860,151.7220
30.870,153.4712
30.880,156.3837
30.890,163.9680
30.900,155.9749
30.910,158.7533
30.920,158.2286
30.930,160.1857
30.940,165.3231
30.950,164.7426
30.960,164.8272
30.970,170.5506
30.980,167.7880
30.990,162.7045
31.000,174.6709
31.010,171.6370
31.020,175.6141
31.030,174.8609
31.040,172.3452
31.050,166.8202
31.060,164.4367
31.070,174.1387
31.080,168.6398
31.090,171.0406
31.100,171.3671
31.110,173.7353
31.120,170.8276
31.130,169.5416
31.140,175.4107
31.150,172.3843
31.160,171.4411
31.170,165.7629
31.180,165.3147
31.190,175.6216
31.200,172.5613
31.210,175.1948
31.220,165.6330
31.230,166.7939
31.240,167.3370
31.250,167.1027
31.260,171.9353
31.270,174.0900
31.280,168.1125
31.290,175.0747
31.300,167.9329
31.310,167.1177
31.320,172.5693
31.330,165.5183
31.340,173.5226
31.350,172.1771
31.360,169.4027
31.370,173.5163
31.380,171.2267
31.390,172.0278
31.400,170.0600
31.410,168.8944
31.420,168.8796
31.430,165.0653
31.440,173.8005
31.450,167.5441
31.460,163.4266
31.470,166.7805
31.480,171.3462
31.490,168.7768
31.500,171.0519
31.510,169.0210
31.520,171.9223
31.530,164.7333
31.540,175.9400
31.550,170.0999
31.560,176.0508
31.570,175.7092
31.580,165.5006
31.590,174.2421
31.600,169.1812
31.610,167.0730
31.620,174.0211
31.630,174.8137
31.640,171.4874
31.650,163.7080
31.660,164.8256
31.670,175.5977
31.680,172.6629
31.690,168.7098
31.700,168.5230
31.710,171.4138
31.720,169.9997
31.730,169.3204
31.740,175.1472
31.750,164.3921
31.760,170.7491
31.770,175.7357
31.780,173.5229
31.790,164.1251
31.800,173.2932
31.810,171.2698
31.820,174.1614
31.830,163.8759
31.840,166.8227
31.850,170.6743
31.860,170.0711
31.870,168.5058
31.880,163.5337
31.890,172.8555
31.900,169.1004
31.910,173.7952
31.920,171.6780
31.930,170.0939
31.940,174.7619
31.950,163.6988
31.960,176.2400
31.970,167.5018
31.980,171.3147
31.990,171.6060
32.000,75.0197
32.010,65.9460
32.020,72.4759
32.030,71.2157
32.040,71.9852
32.050,66.8646
32.060,63.5088
32.070,72.9957
32.080,71.7109
32.090,74.2982
32.100,66.6703
32.110,74.9072
32.120,63.0020
32.130,74.5558
32.140,64.0996
32.150,67.9801
32.160,64.3805
32.170,70.7251
32.180,73.3886
32.190,70.9374
32.200,64.2702
32.210,71.1649
32.220,60.8741
32.230,67.0124
32.240,64.0904
32.250,61.4090
32.260,66.5596
32.270,63.2770
32.280,61.4862
32.290,68.4575
32.300,58.2625
32.310,63.9650
32.320,62.5651
32.330,68.3727
32.340,59.1786
32.350,59.6215
32.360,68.5937
32.370,63.8830
32.380,63.4942
32.390,57.8308
32.400,65.1933
32.410,59.5984
32.420,61.4338
32.430,66.0341
32.440,66.6777
32.450,67.5681
32.460,65.7997
32.470,57.6495
32.480,59.0018
32.490,68.7368
32.500,67.1973
32.510,60.3219
32.520,68.7083
32.530,67.3362
32.540,57.2564
32.550,59.1447
32.560,63.8533
32.570,58.7919
32.580,65.0187
32.590,65.0016
32.600,58.2782
32.610,62.5973
32.620,69.0794
32.630,57.3239
32.640,57.6511
32.650,59.8637
32.660,66.4143
32.670,65.9922
32.680,61.5540
32.690,58.1615
32.700,65.0247
32.710,60.2236
32.720,66.5169
32.730,70.9739
32.740,63.6238
32.750,64.1690
32.760,64.5375
32.770,71.8625
32.780,70.3100
32.790,60.8349
32.800,65.1320
32.810,69.1871
32.820,64.7346
32.830,64.9142
32.840,70.4756
32.850,67.2531
32.860,63.3945
32.870,64.4871
32.880,66.6994
32.890,69.1889
32.900,68.3981
32.910,64.5847
32.920,70.1569
32.930,69.6734
32.940,70.8998
32.950,66.5116
32.960,68.0046
32.970,73.2845
32.980,73.4033
32.990,73.6191
33.000,73.7646
33.010,71.7330
33.020,77.8734
33.030,68.7648
33.040,69.0066
33.050,66.7649
33.060,72.1477
33.070,77.6841
33.080,70.2533
33.090,77.1329
33.100,70.2096
33.110,71.1039
33.120,75.8581
33.130,70.4064
33.140,73.0469
33.150,78.7410
33.160,74.4433
33.170,74.6011
33.180,74.8182
33.190,75.4122
33.200,78.3171
33.210,74.8228
33.220,69.6124
33.230,71.2255
33.240,78.5732
33.250,74.7502
33.260,77.7980
33.270,75.8796
33.280,68.1917
33.290,67.8641
33.300,72.2355
33.310,68.7574
33.320,68.8560
33.330,70.4777
33.340,77.7076
33.350,75.9403
33.360,71.7803
33.370,76.8239
33.380,71.0998
33.390,67.8745
33.400,72.7677
33.410,76.5077
33.420,75.5092
33.430,71.6682
33.440,73.0966
33.450,71.9019
33.460,75.2446
33.470,76.1091
33.480,71.2053
33.490,75.7953
33.500,74.4868
33.510,69.3417
33.520,72.0644
33.530,65.4937
33.540,65.9450
33.550,73.5206
33.560,72.3936
33.570,63.5805
33.580,69.0283
33.590,72.9457
33.600,72.8856
33.610,67.0504
33.620,61.0122
33.630,63.7574
33.640,68.4532
33.650,64.7214
33.660,69.3240
33.670,64.7550
33.680,64.7371
33.690,62.5034
33.700,69.6869
33.710,61.0791
33.720,60.1650
33.730,70.8528
33.740,64.6868
33.750,63.0576
33.760,63.2156
33.770,59.9390
33.780,69.0616
33.790,62.5748
33.800,68.3871
33.810,64.3408
33.820,64.6741
33.830,67.3747
33.840,66.8227
33.850,60.4953
33.860,58.6714
33.870,59.8834
33.880,60.2957
33.890,57.4000
33.900,67.1880
33.910,62.9867
33.920,64.9604
33.930,57.7880
33.940,63.1015
33.950,59.1854
33.960,61.9586
33.970,57.1499
33.980,57.0614
33.990,68.4801
34.000,56.8172
34.010,58.0021
34.020,65.4605
34.030,68.2640
34.040,64.9262
34.050,68.6302
34.060,59.0151
34.070,67.0358
34.080,62.4383
34.090,60.4630
34.100,63.3325
34.110,62.8679
34.120,58.4474
34.130,60.7510
34.140,60.6747
34.150,69.8865
34.160,67.2554
34.170,69.3764
34.180,64.7492
34.190,69.0093
34.200,64.6615
34.210,61.0650
34.220,69.4561
34.230,70.2390
34.240,68.0618
34.250,64.0326
34.260,66.7894
34.270,73.3098
34.280,62.4943
34.290,74.4106
34.300,70.8415
34.310,69.6542
34.320,72.2146
34.330,73.6534
34.340,70.6519
34.350,71.5783
34.360,71.2749
34.370,74.9017
34.380,73.1167
34.390,70.4028
34.400,74.9211
34.410,67.3964
34.420,71.7788
34.430,77.0287
34.440,69.5913
34.450,72.5705
34.460,72.7112
34.470,74.8669
34.480,69.4637
34.490,72.7497
34.500,67.0258
34.510,73.5686
34.520,78.0346
34.530,76.4861
34.540,73.7163
34.550,70.3443
34.560,74.2014
34.570,70.2753
34.580,69.0179
34.590,69.9930
34.600,74.3722
34.610,67.6243
34.620,74.7193
34.630,75.6911
34.640,77.1494
34.650,77.4436
34.660,72.0510
34.670,67.4204
34.680,71.6559
34.690,71.1708
34.700,72.0450
34.710,67.7866
34.720,79.4920
34.730,78.1538
34.740,71.8295
34.750,67.3248
34.760,75.6253
34.770,72.8996
34.780,73.1999
34.790,66.4798
34.800,70.8683
34.810,75.6494
34.820,74.7572
34.830,74.3488
34.840,69.3277
34.850,70.8020
34.860,74.8739
34.870,66.4848
34.880,65.9763
34.890,71.1437
34.900,73.5002
34.910,75.1361
34.920,68.5117
34.930,72.2751
34.940,65.3195
34.950,69.0564
34.960,64.0301
34.970,74.7165
34.980,74.5578
34.990,63.9598
35.000,68.9433
35.010,72.0103
35.020,65.7852
35.030,68.3438
35.040,65.8785
35.050,70.8433
35.060,63.9249
35.070,63.1096
35.080,63.4729
35.090,67.9375
35.100,66.7538
35.110,66.2626
35.120,69.8147
35.130,63.9476
35.140,64.3256
35.150,65.1755
35.160,64.4383
35.170,67.9477
35.180,59.1772
35.190,62.0130
35.200,59.1517
35.210,69.1639
35.220,61.7337
35.230,60.7070
35.240,69.1645
35.250,59.6371
35.260,58.5793
35.270,68.0160
35.280,67.4250
35.290,68.7494
35.300,59.9177
35.310,57.3320
35.320,58.1853
35.330,60.3080
35.340,65.5778
35.350,68.7765
35.360,66.0171
35.370,59.6474
35.380,63.4880
35.390,65.0846
35.400,66.3967
35.410,68.0644
35.420,65.8186
35.430,61.0732
35.440,65.2113
35.450,61.9090
35.460,58.3238
35.470,63.1521
35.480,67.4529
35.490,65.8498
35.500,68.3684
35.510,59.5557
35.520,69.8330
35.530,62.1687
35.540,68.1102
35.550,59.0044
35.560,66.9722
35.570,64.6367
35.580,60.0829
35.590,65.6036
35.600,70.6062
35.610,61.0491
35.620,67.5461
35.630,63.3677
35.640,65.6066
35.650,71.2095
35.660,73.0355
35.670,70.3382
35.680,65.5146
35.690,69.1671
35.700,64.2970
35.710,66.0887
35.720,71.8838
35.730,70.9668
35.740,65.6032
35.750,65.2039
35.760,71.8824
35.770,73.0801
35.780,69.2616
35.790,71.2600
35.800,71.0387
35.810,72.5287
35.820,74.2533
35.830,74.2834
35.840,64.6335
35.850,72.3423
35.860,77.0251
35.870,71.4626
35.880,75.7009
35.890,71.0772
35.900,69.3307
35.910,70.8770
35.920,77.7075
35.930,67.6042
35.940,76.6450
35.950,72.0300
35.960,79.1356
35.970,77.7800
35.980,74.4999
35.990,72.9047
36.000,71.8439
36.010,72.3523
36.020,77.6512
36.030,72.6021
36.040,77.6696
36.050,74.2909
36.060,75.6448
36.070,73.4749
36.080,79.1466
36.090,79.1218
36.100,69.6886
36.110,73.1999
36.120,79.3410
36.130,77.6345
36.140,67.0211
36.150,78.6025
36.160,76.3145
36.170,69.0877
36.180,67.3275
36.190,77.7145
36.200,67.1550
36.210,75.2241
36.220,71.2007
36.230,67.6615
36.240,72.6774
36.250,75.5522
36.260,68.3791
36.270,65.3446
36.280,71.3501
36.290,71.5620
36.300,71.3909
36.310,68.1232
36.320,72.6863
36.330,74.0823
36.340,66.8128
36.350,75.8831
36.360,65.9230
36.370,71.5173
36.380,75.5575
36.390,69.5827
36.400,67.0021
36.410,73.2557
36.420,67.8312
36.430,63.4992
36.440,63.4894
36.450,66.1380
36.460,68.1615
36.470,69.8840
36.480,62.6430
36.490,60.8171
36.500,69.4538
36.510,71.0716
36.520,70.7421
36.530,60.9300
36.540,65.3768
36.550,63.0861
36.560,66.8226
36.570,59.4679
36.580,58.9705
36.590,62.0472
36.600,69.3847
36.610,67.9418
36.620,65.3347
36.630,58.7357
36.640,59.0826
36.650,66.9594
36.660,69.7606
36.670,67.2778
36.680,64.8440
36.690,58.2160
36.700,58.3087
36.710,67.8692
36.720,57.1813
36.730,59.7738
36.740,67.5599
36.750,69.1148
36.760,64.7869
36.770,59.6059
36.780,57.2119
36.790,61.9507
36.800,62.1220
36.810,58.6584
36.820,57.1576
36.830,65.8510
36.840,63.7877
36.850,65.6057
36.860,64.4336
36.870,62.7613
36.880,65.8863
36.890,61.5761
36.900,63.8795
36.910,61.0073
36.920,58.2829
36.930,61.5743
36.940,63.7908
36.950,69.2814
36.960,63.1762
36.970,67.3217
36.980,68.7536
36.990,59.3188
37.000,58.9602
37.010,64.4006
37.020,63.5823
37.030,59.7782
37.040,67.2361
37.050,65.9845
37.060,67.3160
37.070,66.7694
37.080,70.3746
37.090,64.5367
37.100,61.3150
37.110,70.4794
37.120,72.9404
37.130,73.6138
37.140,69.1296
37.150,71.4649
37.160,71.0203
37.170,70.7568
37.180,67.7025
37.190,70.4101
37.200,72.0971
37.210,68.8917
37.220,73.8058
37.230,64.1635
37.240,66.9914
37.250,66.1112
37.260,68.1787
37.270,67.2220
37.280,71.0551
37.290,73.5717
37.300,74.0514
37.310,68.0472
37.320,69.2596
37.330,68.9855
37.340,76.1552
37.350,67.9792
37.360,69.5854
37.370,77.3141
37.380,73.9030
37.390,66.7260
37.400,70.2493
37.410,72.5274
37.420,68.5763
37.430,75.0126
37.440,69.9248
37.450,69.7261
37.460,73.2689
37.470,79.0465
37.480,79.3900
37.490,72.8035
37.500,78.3395
37.510,77.6680
37.520,76.2645
37.530,69.8571
37.540,77.4015
37.550,73.8722
37.560,70.1194
37.570,69.3022
37.580,72.3178
37.590,72.0880
37.600,76.2701
37.610,77.3738
37.620,75.7666
37.630,78.0071
37.640,77.6557
37.650,74.1989
37.660,73.6465
37.670,67.0461
37.680,65.7180
37.690,76.5777
37.700,76.9608
37.710,76.5703
37.720,65.2564
37.730,77.0743
37.740,65.9717
37.750,76.4763
37.760,64.6432
37.770,64.0887
37.780,69.1264
37.790,68.7736
37.800,73.8422
37.810,66.6088
37.820,67.4260
37.830,65.1975
37.840,67.8819
37.850,62.3504
37.860,69.8164
37.870,64.2050
37.880,73.4428
37.890,69.5455
37.900,64.6333
37.910,72.4825
37.920,70.5483
37.930,69.0914
37.940,62.2437
37.950,69.1611
37.960,69.0287
37.970,66.6424
37.980,72.0715
37.990,67.1205
38.000,71.5855
38.010,62.4881
38.020,69.3257
38.030,65.4098
38.040,66.5441
38.050,65.9995
38.060,67.1824
38.070,60.2948
38.080,61.4573
38.090,68.9108
38.100,65.4078
38.110,61.7525
38.120,68.6717
38.130,63.5234
38.140,58.6707
38.150,64.9072
38.160,57.2795
38.170,62.5957
38.180,69.7712
38.190,67.4240
38.200,60.1097
38.210,65.7612
38.220,68.1307
38.230,67.3550
38.240,64.2685
38.250,64.7877
38.260,60.5214
38.270,64.0644
38.280,59.4700
38.290,68.3474
38.300,69.2196
38.310,65.1387
38.320,62.5752
38.330,69.4655
38.340,62.1614
38.350,67.0962
38.360,70.2224
38.370,62.8163
38.380,66.9120
38.390,65.2537
38.400,65.4184
38.410,71.3393
38.420,66.9947
38.430,66.8839
38.440,71.0532
38.450,61.6927
38.460,71.8420
38.470,60.9198
38.480,72.8463
38.490,65.1146
38.500,70.4387
38.510,62.2864
38.520,67.0671
38.530,68.7234
38.540,66.9678
38.550,65.1139
38.560,73.3420
38.570,67.1400
38.580,68.0939
38.590,72.2122
38.600,71.0892
38.610,70.3952
38.620,76.0067
38.630,64.8327
38.640,70.7239
38.650,69.9521
38.660,69.8117
38.670,75.2719
38.680,73.4354
38.690,69.8437
38.700,70.8737
38.710,65.8182
38.720,72.6296
38.730,74.8606
38.740,69.8957
38.750,69.0118
38.760,70.4591
38.770,66.6772
38.780,68.5825
38.790,72.4238
38.800,69.6931
38.810,77.8986
38.820,79.1855
38.830,72.9974
38.840,72.8428
38.850,73.9434
38.860,76.2678
38.870,69.1247
38.880,74.6096
38.890,70.6488
38.900,76.7609
38.910,68.1172
38.920,76.2995
38.930,75.6019
38.940,79.7249
38.950,76.1429
38.960,76.9712
38.970,77.9928
38.980,79.7758
38.990,69.8268
39.000,70.7144
39.010,71.2201
39.020,73.2547
39.030,75.9089
39.040,74.8731
39.050,78.2496
39.060,67.0138
39.070,76.3848
39.080,75.1242
39.090,72.4972
39.100,75.2048
39.110,69.4845
39.120,77.2965
39.130,76.5954
39.140,66.9694
39.150,72.7410
39.160,67.4801
39.170,70.7202
39.180,75.4323
39.190,76.9055
39.200,64.5465
39.210,65.2580
39.220,66.4077
39.230,73.8092
39.240,65.4948
39.250,68.5215
39.260,68.2523
39.270,74.3115
39.280,67.4613
39.290,73.2721
39.300,63.9613
39.310,63.6333
39.320,62.0212
39.330,62.5382
39.340,70.9756
39.350,63.0670
39.360,64.8283
39.370,68.9753
39.380,69.6490
39.390,72.2172
39.400,69.0466
39.410,64.8010
39.420,66.7908
39.430,59.9889
39.440,65.2167
39.450,69.6242
39.460,60.5585
39.470,63.4239
39.480,63.2784
39.490,60.1473
39.500,63.3909
39.510,66.0570
39.520,63.7192
39.530,62.1700
39.540,63.8701
39.550,63.6442
39.560,67.3998
39.570,57.6908
39.580,64.2992
39.590,68.0832
39.600,58.1907
39.610,67.0703
39.620,62.4065
39.630,62.9364
39.640,66.1918
39.650,64.8769
39.660,67.0140
39.670,58.0013
39.680,59.2038
39.690,60.8271
39.700,68.9179
39.710,58.5841
39.720,65.8465
39.730,60.0812
39.740,67.6421
39.750,60.1440
39.760,57.8011
39.770,60.5327
39.780,58.3939
39.790,59.6342
39.800,66.3778
39.810,58.9145
39.820,70.3191
39.830,60.2896
39.840,61.2413
39.850,71.3910
39.860,63.1991
39.870,60.2171
39.880,63.0133
39.890,69.8206
39.900,68.5549
39.910,60.7186
39.920,63.4201
39.930,65.1745
39.940,68.1529
39.950,68.0567
39.960,72.2772
39.970,74.2466
39.980,66.9416
39.990,67.4796
40.000,67.9894
40.010,71.6901
40.020,69.5609
40.030,69.4596
40.040,64.9709
40.050,75.2793
40.060,74.5680
40.070,64.1156
40.080,73.0209
40.090,64.8680
40.100,76.9714
40.110,66.7306
40.120,68.5720
40.130,70.6245
40.140,75.2744
40.150,66.3717
40.160,70.4495
40.170,77.1376
40.180,66.9368
40.190,69.7761
40.200,68.7474
40.210,78.0098
40.220,69.4826
40.230,73.6000
40.240,70.8937
40.250,76.9910
40.260,74.2169
40.270,75.9961
40.280,69.3422
40.290,77.0857
40.300,79.5114
40.310,73.3488
40.320,73.8678
40.330,69.0699
40.340,73.0545
40.350,76.3483
40.360,71.8656
40.370,76.0499
40.380,73.6506
40.390,68.1438
40.400,75.1743
40.410,76.6907
40.420,71.4141
40.430,72.1628
40.440,67.4898
40.450,72.1935
40.460,70.0829
40.470,70.0861
40.480,72.4233
40.490,67.6427
40.500,78.1910
40.510,71.8284
40.520,75.0957
40.530,71.2306
40.540,78.5990
40.550,75.2886
40.560,69.8496
40.570,74.0583
40.580,73.5678
40.590,65.4644
40.600,74.2450
40.610,71.8391
40.620,77.2051
40.630,69.4701
40.640,69.0302
40.650,70.1232
40.660,67.5971
40.670,68.4326
40.680,72.3967
40.690,63.6027
40.700,66.0410
40.710,63.2337
40.720,71.7868
40.730,73.0687
40.740,65.1098
40.750,70.7169
40.760,71.4179
40.770,67.7165
40.780,73.0995
40.790,73.5383
40.800,73.0576
40.810,72.5808
40.820,66.1895
40.830,61.7960
40.840,70.8968
40.850,60.9815
40.860,67.5775
40.870,70.2985
40.880,69.2472
40.890,71.1759
40.900,69.8844
40.910,60.3441
40.920,61.1036
40.930,61.4119
40.940,58.6600
40.950,61.1594
40.960,60.2430
40.970,67.4441
40.980,63.6563
40.990,67.2993
41.000,60.7467
41.010,67.6528
41.020,60.3260
41.030,60.4393
41.040,58.4106
41.050,60.1468
41.060,61.3998
41.070,66.4825
41.080,69.5918
41.090,62.5548
41.100,66.8903
41.110,58.9964
41.120,70.1930
41.130,63.4872
41.140,62.5369
41.150,69.9501
41.160,66.4595
41.170,61.2627
41.180,59.2602
41.190,60.4581
41.200,62.8709
41.210,70.7758
41.220,61.1167
41.230,58.8916
41.240,64.1089
41.250,65.8901
41.260,61.0838
41.270,59.6917
41.280,62.3182
41.290,63.1927
41.300,71.2749
41.310,71.8416
41.320,60.5238
41.330,70.2286
41.340,71.7019
41.350,68.5310
41.360,68.7368
41.370,71.9365
41.380,66.9998
41.390,64.2344
41.400,67.4628
41.410,62.3335
41.420,67.4143
41.430,72.6842
41.440,75.6313
41.450,72.5532
41.460,71.6335
41.470,67.2436
41.480,72.7077
41.490,74.4703
41.500,72.7874
41.510,64.5473
41.520,77.2771
41.530,74.8104
41.540,70.8011
41.550,65.3922
41.560,75.0938
41.570,68.7784
41.580,77.3156
41.590,75.5002
41.600,68.8512
41.610,76.2876
41.620,66.8686
41.630,70.1084
41.640,70.0089
41.650,71.1544
41.660,77.5819
41.670,68.3711
41.680,78.2637
41.690,72.2933
41.700,71.8252
41.710,78.9797
41.720,77.6702
41.730,68.1378
41.740,68.1990
41.750,75.9601
41.760,76.2152
41.770,74.9314
41.780,77.0235
41.790,72.3160
41.800,78.4187
41.810,72.6466
41.820,74.4148
41.830,76.0194
41.840,68.7338
41.850,75.5263
41.860,68.7528
41.870,78.9970
41.880,70.8894
41.890,76.5128
41.900,67.9361
41.910,69.5052
41.920,68.5104
41.930,78.3132
41.940,71.5840
41.950,71.9939
41.960,74.8881
41.970,68.7781
41.980,66.5480
41.990,73.3234
42.000,67.9236
42.010,69.7426
42.020,67.7029
42.030,72.2623
42.040,73.4893
42.050,68.3975
42.060,71.6534
42.070,64.3106
42.080,70.9247
42.090,68.0739
42.100,68.1274
42.110,71.6497
42.120,69.6707
42.130,65.5292
42.140,66.5752
42.150,66.7211
42.160,66.6730
42.170,68.1750
42.180,70.7384
42.190,62.3048
42.200,73.7601
42.210,71.4748
42.220,62.4906
42.230,60.6677
42.240,68.9575
42.250,62.7039
42.260,64.1406
42.270,71.4216
42.280,71.3047
42.290,72.3148
42.300,69.6682
42.310,69.4489
42.320,70.5458
42.330,64.7513
42.340,68.1359
42.350,65.0423
42.360,65.9664
42.370,63.7137
42.380,61.5603
42.390,60.7224
42.400,67.5438
42.410,62.1924
42.420,58.6234
42.430,58.5813
42.440,66.1243
42.450,67.7854
42.460,68.1523
42.470,61.3082
42.480,65.5313
42.490,60.1220
42.500,67.8406
42.510,68.9854
42.520,57.9023
42.530,57.8916
42.540,64.4970
42.550,59.0500
42.560,58.1772
42.570,62.4933
42.580,63.4954
42.590,64.0551
42.600,60.7714
42.610,64.6478
42.620,58.8070
42.630,64.9346
42.640,62.4201
42.650,59.7804
42.660,67.2251
42.670,64.7180
42.680,60.3089
42.690,61.4097
42.700,65.4403
42.710,66.0525
42.720,60.2752
42.730,60.5395
42.740,69.4336
42.750,72.8739
42.760,66.4830
42.770,67.9747
42.780,67.3861
42.790,63.8174
42.800,63.4933
42.810,64.1341
42.820,65.6549
42.830,70.3481
42.840,63.1370
42.850,73.5685
42.860,73.8885
42.870,74.0690
42.880,67.8971
42.890,68.9005
42.900,67.5776
42.910,65.6190
42.920,75.5305
42.930,70.8029
42.940,67.9536
42.950,65.1175
42.960,73.7228
42.970,72.7779
42.980,66.4283
42.990,68.5241
43.000,78.4392
43.010,68.7472
43.020,67.7065
43.030,70.3135
43.040,74.1888
43.050,67.9219
43.060,77.6555
43.070,71.2949
43.080,71.6069
43.090,71.1944
43.100,70.2946
43.110,78.6623
43.120,70.8997
43.130,78.6363
43.140,71.0699
43.150,72.3605
43.160,80.1278
43.170,79.8339
43.180,71.8959
43.190,74.9650
43.200,80.0941
43.210,73.2109
43.220,68.5577
43.230,76.8668
43.240,74.8136
43.250,70.0284
43.260,74.2517
43.270,77.2628
43.280,73.0432
43.290,69.1376
43.300,68.2722
43.310,79.5205
43.320,69.7576
43.330,72.8843
43.340,71.9801
43.350,75.6671
43.360,70.4431
43.370,66.8257
43.380,74.3757
43.390,77.8905
43.400,72.3568
43.410,68.1640
43.420,74.9042
43.430,67.1546
43.440,68.8530
43.450,66.8536
43.460,75.5840
43.470,67.4684
43.480,77.3274
43.490,68.9491
43.500,72.9917
43.510,64.6954
43.520,75.9608
43.530,64.8574
43.540,70.1813
43.550,69.5227
43.560,69.4459
43.570,64.8046
43.580,74.8064
43.590,74.3566
43.600,62.8664
43.610,66.6884
43.620,67.7217
43.630,62.9426
43.640,65.1061
43.650,62.6830
43.660,73.2361
43.670,64.7273
43.680,64.1852
43.690,72.7668
43.700,72.7984
43.710,71.8065
43.720,67.4147
43.730,70.1233
43.740,67.4867
43.750,61.5906
43.760,65.2881
43.770,68.4375
43.780,62.4586
43.790,62.7619
43.800,59.8431
43.810,66.3307
43.820,63.7134
43.830,64.7125
43.840,58.3396
43.850,63.6834
43.860,65.4481
43.870,67.8720
43.880,64.9732
43.890,69.1707
43.900,67.1813
43.910,64.8854
43.920,61.7496
43.930,67.5545
43.940,69.1503
43.950,66.6602
43.960,70.0679
43.970,65.8131
43.980,69.4649
43.990,67.3178
44.000,70.0041
44.010,58.7314
44.020,70.8744
44.030,68.0883
44.040,69.7685
44.050,60.8811
44.060,60.1698
44.070,66.2824
44.080,62.4061
44.090,64.8006
44.100,64.6163
44.110,59.8007
44.120,65.4401
44.130,69.0128
44.140,66.4790
44.150,66.1959
44.160,61.7345
44.170,64.7276
44.180,63.2892
44.190,69.1916
44.200,64.6586
44.210,70.0552
44.220,71.2328
44.230,64.1341
44.240,66.3803
44.250,70.6998
44.260,66.4731
44.270,70.6815
44.280,67.1972
44.290,72.2167
44.300,66.2636
44.310,75.5192
44.320,65.7183
44.330,68.1179
44.340,72.7857
44.350,67.5180
44.360,73.2997
44.370,67.5848
44.380,65.0431
44.390,66.6436
44.400,68.4147
44.410,74.2788
44.420,70.6922
44.430,71.4178
44.440,76.6973
44.450,69.9378
44.460,78.4220
44.470,73.5694
44.480,74.7153
44.490,74.3847
44.500,73.0520
44.510,77.8858
44.520,72.6110
44.530,69.8635
44.540,72.4120
44.550,68.0844
44.560,73.4882
44.570,76.7721
44.580,71.2126
44.590,68.2163
44.600,70.0919
44.610,72.6109
44.620,68.7441
44.630,72.2072
44.640,71.7295
44.650,72.1640
44.660,79.0753
44.670,71.5054
44.680,68.9026
44.690,76.6372
44.700,73.9680
44.710,71.4810
44.720,67.8263
44.730,71.2247
44.740,76.5348
44.750,77.9428
44.760,72.0650
44.770,73.8998
44.780,70.2655
44.790,74.3066
44.800,70.5562
44.810,74.5942
44.820,68.9473
44.830,72.7022
44.840,66.9743
44.850,76.8736
44.860,67.4321
44.870,77.1899
44.880,74.3655
44.890,69.1633
44.900,69.3147
44.910,65.4531
44.920,76.4844
44.930,71.0264
44.940,76.5236
44.950,67.2528
44.960,64.1130
44.970,73.3274
44.980,75.4950
44.990,71.2652
45.000,69.1540
45.010,67.9378
45.020,72.1097
45.030,74.3975
45.040,79.6492
45.050,73.2069
45.060,73.1522
45.070,81.6782
45.080,75.1236
45.090,72.2831
45.100,79.3780
45.110,80.5159
45.120,76.9484
45.130,76.3461
45.140,88.5117
45.150,80.5456
45.160,82.8641
45.170,83.9095
45.180,85.6049
45.190,93.1748
45.200,87.1562
45.210,95.3334
45.220,87.8078
45.230,93.9657
45.240,90.1518
45.250,100.7865
45.260,96.2731
45.270,96.6049
45.280,97.8635
45.290,98.2145
45.300,98.8962
45.310,102.1292
45.320,100.6320
45.330,97.2034
45.340,101.4135
45.350,100.6245
45.360,102.5825
45.370,107.4160
45.380,112.2740
45.390,111.1643
45.400,115.3907
45.410,106.5439
45.420,112.3246
45.430,109.8178
45.440,111.7323
45.450,110.1100
45.460,119.3990
45.470,112.8642
45.480,122.0088
45.490,115.6900
45.500,121.3270
45.510,118.3088
45.520,125.9503
45.530,124.4031
45.540,128.7191
45.550,129.4367
45.560,128.3570
45.570,127.9303
45.580,125.7733
45.590,124.9683
45.600,129.2641
45.610,137.1087
45.620,135.0736
45.630,133.9456
45.640,131.2805
45.650,141.1332
45.660,142.3471
45.670,138.3328
45.680,144.4301
45.690,145.2572
45.700,138.1668
45.710,146.6979
45.720,144.4449
45.730,140.7486
45.740,146.6907
45.750,152.3470
45.760,144.3843
45.770,151.6028
45.780,146.0050
45.790,156.3503
45.800,147.7748
45.810,149.8060
45.820,154.6360
45.830,162.1302
45.840,161.0147
45.850,152.5047
45.860,165.0306
45.870,159.1742
45.880,163.9299
45.890,163.7347
45.900,160.8686
45.910,167.0244
45.920,170.1345
45.930,167.3401
45.940,163.7621
45.950,171.4509
45.960,167.2164
45.970,172.4521
45.980,177.3507
45.990,178.3880
46.000,173.4645
46.010,172.5024
46.020,177.8135
46.030,169.0078
46.040,179.8073
46.050,179.7671
46.060,174.9312
46.070,174.0417
46.080,171.4288
46.090,179.3090
46.100,172.2113
46.110,179.1029
46.120,169.1134
46.130,167.2510
46.140,179.1332
46.150,172.4915
46.160,173.6974
46.170,173.3860
46.180,172.2967
46.190,177.3880
46.200,167.0614
46.210,177.6062
46.220,169.0396
46.230,168.9786
46.240,173.9266
46.250,168.7600
46.260,172.1777
46.270,169.8477
46.280,174.7937
46.290,178.3933
46.300,177.8056
46.310,168.5723
46.320,176.8188
46.330,168.8990
46.340,171.1419
46.350,174.5677
46.360,171.3354
46.370,176.5967
46.380,176.0381
46.390,170.2246
46.400,174.4339
46.410,178.6510
46.420,174.6226
46.430,171.4521
46.440,178.6215
46.450,177.0088
46.460,176.4804
46.470,172.1993
46.480,168.7199
46.490,177.1981
46.500,170.4789
46.510,169.4293
46.520,174.7706
46.530,170.5353
46.540,171.3474
46.550,171.5895
46.560,179.2772
46.570,173.6009
46.580,169.6234
46.590,168.2445
46.600,174.1649
46.610,168.1483
46.620,172.4505
46.630,170.0176
46.640,173.8226
46.650,171.1109
46.660,173.8429
46.670,170.6360
46.680,169.3819
46.690,176.1899
46.700,178.8838
46.710,178.3358
46.720,168.2537
46.730,168.0588
46.740,172.5865
46.750,179.4488
46.760,169.0214
46.770,167.9559
46.780,173.2677
46.790,179.3520
46.800,176.9490
46.810,179.1923
46.820,169.2688
46.830,173.7456
46.840,174.7074
46.850,175.6186
46.860,170.4050
46.870,173.7290
46.880,173.4367
46.890,171.4592
46.900,178.9488
46.910,169.4486
46.920,173.0055
46.930,173.0348
46.940,168.6452
46.950,175.3444
46.960,171.2252
46.970,170.8415
46.980,174.7410
46.990,177.1229
47.000,65.8648
47.010,66.5529
47.020,72.6799
47.030,65.1462
47.040,69.8111
47.050,65.8474
47.060,69.1976
47.070,64.6126
47.080,68.7931
47.090,69.3057
47.100,62.5233
47.110,70.1955
47.120,69.7872
47.130,74.7169
47.140,63.6558
47.150,63.9254
47.160,70.9781
47.170,71.4987
47.180,68.5095
47.190,66.8406
47.200,68.5448
47.210,76.3060
47.220,69.3890
47.230,68.3219
47.240,69.0452
47.250,68.6133
47.260,72.4049
47.270,69.4001
47.280,74.9393
47.290,68.0957
47.300,72.8122
47.310,78.5437
47.320,79.4204
47.330,71.4721
47.340,79.6218
47.350,67.6850
47.360,75.3103
47.370,74.6082
47.380,70.4031
47.390,69.0545
47.400,78.6093
47.410,74.9038
47.420,73.3063
47.430,68.2411
47.440,71.5455
47.450,73.3728
47.460,80.7056
47.470,77.6478
47.480,70.5152
47.490,73.5855
47.500,74.5523
47.510,74.1979
47.520,81.1503
47.530,76.7132
47.540,73.9817
47.550,72.4528
47.560,71.2003
47.570,74.2687
47.580,72.3665
47.590,70.3176
47.600,75.2039
47.610,69.2806
47.620,75.7521
47.630,71.5042
47.640,72.0590
47.650,79.8191
47.660,68.9610
47.670,75.4570
47.680,76.2134
47.690,67.3048
47.700,77.2939
47.710,75.3214
47.720,70.9088
47.730,71.9642
47.740,74.2174
47.750,75.6764
47.760,76.2159
47.770,75.1892
47.780,74.7899
47.790,69.5829
47.800,73.4933
47.810,75.2708
47.820,72.9403
47.830,68.4644
47.840,66.4845
47.850,65.8943
47.860,63.5733
47.870,66.7503
47.880,70.6897
47.890,69.9546
47.900,62.2437
47.910,69.0176
47.920,68.3332
47.930,68.6698
47.940,67.6433
47.950,62.8158
47.960,67.0585
47.970,60.8237
47.980,63.2445
47.990,64.1470
48.000,61.8225
48.010,67.5283
48.020,64.1706
48.030,69.0743
48.040,66.8200
48.050,68.4623
48.060,70.2851
48.070,71.0512
48.080,61.5050
48.090,64.4530
48.100,61.4964
48.110,59.1271
48.120,70.8069
48.130,70.8085
48.140,66.9588
48.150,63.3325
48.160,60.4759
48.170,62.7667
48.180,59.0142
48.190,60.1466
48.200,59.5023
48.210,61.2948
48.220,63.7841
48.230,61.0409
48.240,66.7964
48.250,62.7979
48.260,66.3792
48.270,65.7715
48.280,60.9048
48.290,58.3474
48.300,69.2774
48.310,68.8236
48.320,69.0469
48.330,66.4167
48.340,60.5147
48.350,70.9974
48.360,59.2528
48.370,65.3441
48.380,59.8877
48.390,65.4906
48.400,62.1862
48.410,60.4941
48.420,67.2386
48.430,71.3216
48.440,72.2499
48.450,67.3765
48.460,65.9279
48.470,66.0081
48.480,69.2516
48.490,63.3105
48.500,67.7303
48.510,67.7157
48.520,66.8163
48.530,67.6270
48.540,66.8084
48.550,68.8050
48.560,63.9604
48.570,65.1599
48.580,72.8717
48.590,75.6479
48.600,73.0552
48.610,75.5628
48.620,65.0592
48.630,66.4100
48.640,75.8178
48.650,69.8712
48.660,65.5672
48.670,66.2888
48.680,73.4099
48.690,74.6807
48.700,75.9797
48.710,75.2129
48.720,74.8618
48.730,79.2996
48.740,76.5460
48.750,74.4022
48.760,74.4551
48.770,73.3431
48.780,67.6360
48.790,76.7266
48.800,75.5988
48.810,79.1575
48.820,75.9489
48.830,68.6112
48.840,79.2446
48.850,69.9030
48.860,80.8342
48.870,76.1890
48.880,71.4783
48.890,78.7494
48.900,68.8727
48.910,69.7034
48.920,69.9516
48.930,68.4487
48.940,79.2911
48.950,71.0913
48.960,77.1326
48.970,77.1762
48.980,75.8048
48.990,77.1627
49.000,80.3575
49.010,68.1706
49.020,68.6995
49.030,71.0514
49.040,75.1300
49.050,71.2536
49.060,73.8043
49.070,75.1386
49.080,78.2936
49.090,73.7039
49.100,77.9769
49.110,74.0664
49.120,75.4233
49.130,76.2608
49.140,73.7984
49.150,72.6349
49.160,68.4219
49.170,72.6694
49.180,76.6525
49.190,70.1848
49.200,75.9531
49.210,71.1914
49.220,71.6519
49.230,65.3295
49.240,74.2255
49.250,68.1852
49.260,70.5753
49.270,69.3184
49.280,67.4274
49.290,75.2540
49.300,69.6497
49.310,68.2782
49.320,72.0349
49.330,65.6260
49.340,73.3173
49.350,66.8949
49.360,63.9259
49.370,61.9272
49.380,70.2207
49.390,63.4094
49.400,64.0979
49.410,66.7797
49.420,69.2967
49.430,70.2965
49.440,69.7750
49.450,60.3229
49.460,63.4131
49.470,66.2757
49.480,62.2865
49.490,70.3765
49.500,71.7800
49.510,62.9498
49.520,61.8866
49.530,62.5440
49.540,67.1494
49.550,59.3381
49.560,69.9067
49.570,62.5151
49.580,59.8869
49.590,61.7193
49.600,66.1000
49.610,61.8880
49.620,69.4581
49.630,59.9208
49.640,63.7740
49.650,67.4487
49.660,60.1018
49.670,65.1191
49.680,61.8438
49.690,60.5814
49.700,70.5019
49.710,63.4588
49.720,69.4989
49.730,62.4213
49.740,70.2827
49.750,68.5750
49.760,60.8362
49.770,61.3406
49.780,61.5062
49.790,61.4243
49.800,59.9379
49.810,65.2244
49.820,61.2102
49.830,68.4278
49.840,61.4278
49.850,60.7827
49.860,63.6388
49.870,68.0011
49.880,60.7985
49.890,69.9520
49.900,66.9348
49.910,64.3104
49.920,66.1511
49.930,66.0194
49.940,69.6723
49.950,65.2353
49.960,64.5026
49.970,68.9817
49.980,63.4993
49.990,64.1062
50.000,74.8479
50.010,65.0093
50.020,72.0795
50.030,72.7620
50.040,73.2987
50.050,68.4051
50.060,71.7901
50.070,76.9022
50.080,66.4234
50.090,76.6635
50.100,70.9693
50.110,69.5308
50.120,77.4241
50.130,67.9450
50.140,74.0220
50.150,72.5545
50.160,75.8958
50.170,72.0132
50.180,68.0887
50.190,79.9030
50.200,70.2179
50.210,71.3992
50.220,78.4852
50.230,74.2520
50.240,79.8468
50.250,70.8799
50.260,73.1711
50.270,68.1792
50.280,72.3351
50.290,80.7493
50.300,79.1801
50.310,74.2767
50.320,76.6093
50.330,75.9418
50.340,73.4495
50.350,73.6786
50.360,78.6921
50.370,80.6887
50.380,74.1180
50.390,73.0692
50.400,70.1138
50.410,79.9152
50.420,78.1741
50.430,78.0505
50.440,80.3460
50.450,78.9478
50.460,70.3770
50.470,71.5071
50.480,72.3699
50.490,75.5820
50.500,74.8334
50.510,76.2500
50.520,74.9543
50.530,67.1796
50.540,76.1055
50.550,70.7992
50.560,74.1750
50.570,78.5004
50.580,74.3631
50.590,68.4064
50.600,74.1180
50.610,78.1848
50.620,76.4912
50.630,67.0630
50.640,71.6251
50.650,73.5723
50.660,67.0764
50.670,74.7434
50.680,75.6815
50.690,68.1274
50.700,64.2921
50.710,66.7971
50.720,76.0725
50.730,71.4181
50.740,66.4062
50.750,74.0366
50.760,71.7568
50.770,74.0194
50.780,67.8757
50.790,68.8666
50.800,68.9940
50.810,72.1314
50.820,67.9022
50.830,63.9104
50.840,66.4896
50.850,69.7125
50.860,63.7480
50.870,68.4561
50.880,63.1895
50.890,63.4372
50.900,59.9983
50.910,64.9064
50.920,60.2883
50.930,68.3654
50.940,60.8181
50.950,64.6471
50.960,59.9264
50.970,71.0849
50.980,63.2666
50.990,59.6877
51.000,61.4041
51.010,62.5114
51.020,62.3446
51.030,67.4755
51.040,69.6341
51.050,66.4922
51.060,69.9444
51.070,71.1340
51.080,61.6072
51.090,68.1669
51.100,65.6909
51.110,68.8259
51.120,60.3824
51.130,68.0345
51.140,66.7465
51.150,65.5366
51.160,70.0841
51.170,60.9354
51.180,61.1002
51.190,61.7699
51.200,67.5976
51.210,66.0053
51.220,62.2378
51.230,63.3851
51.240,68.3925
51.250,62.5311
51.260,67.8112
51.270,60.6278
51.280,63.6049
51.290,72.5264
51.300,67.9638
51.310,66.3254
51.320,73.1194
51.330,69.4347
51.340,68.4660
51.350,62.3503
51.360,69.8295
51.370,71.9963
51.380,64.9553
51.390,64.9961
51.400,65.7620
51.410,74.0047
51.420,66.2322
51.430,64.4985
51.440,65.8653
51.450,72.2594
51.460,67.9179
51.470,70.6972
51.480,75.4472
51.490,71.9385
51.500,71.3568
51.510,67.8412
51.520,65.5374
51.530,66.0111
51.540,75.4524
51.550,77.2702
51.560,73.1476
51.570,69.9032
51.580,72.8194
51.590,71.1936
51.600,70.8046
51.610,77.5249
51.620,76.4597
51.630,72.2822
51.640,79.8665
51.650,74.4389
51.660,71.9523
51.670,80.2233
51.680,71.2366
51.690,79.8645
51.700,71.6556
51.710,75.6984
51.720,68.9129
51.730,77.3167
51.740,80.8113
51.750,71.2903
51.760,71.1628
51.770,80.1312
51.780,77.7699
51.790,76.1575
51.800,72.0136
51.810,81.3863
51.820,76.9933
51.830,68.7893
51.840,79.7552
51.850,78.6591
51.860,79.1451
51.870,76.4523
51.880,79.0124
51.890,79.4279
51.900,73.2700
51.910,72.0514
51.920,79.9664
51.930,72.4181
51.940,77.9060
51.950,78.7016
51.960,78.7662
51.970,77.6419
51.980,67.5114
51.990,68.9492
52.000,67.4184
52.010,69.0726
52.020,72.6332
52.030,66.6440
52.040,66.8901
52.050,68.2461
52.060,73.7837
52.070,65.2607
52.080,76.9857
52.090,76.0127
52.100,71.9281
52.110,74.3653
52.120,69.7612
52.130,74.1405
52.140,66.1627
52.150,74.9644
52.160,68.6987
52.170,66.2351
52.180,64.2154
52.190,68.0814
52.200,65.1005
52.210,68.8258
52.220,66.6440
52.230,66.6251
52.240,72.9483
52.250,68.8615
52.260,72.3040
52.270,66.0106
52.280,66.7432
52.290,68.0044
52.300,71.3540
52.310,62.9196
52.320,72.5103
52.330,63.4855
52.340,69.8836
52.350,70.2185
52.360,67.2649
52.370,59.2317
52.380,67.2624
52.390,67.0523
52.400,63.0434
52.410,65.0481
52.420,69.3625
52.430,70.7152
52.440,70.3421
52.450,66.3709
52.460,69.3140
52.470,69.7486
52.480,68.0643
52.490,65.0668
52.500,58.9208
52.510,69.3462
52.520,59.7618
52.530,59.4664
52.540,68.9799
52.550,65.2369
52.560,71.3485
52.570,66.5815
52.580,67.5157
52.590,62.3292
52.600,63.1514
52.610,69.7045
52.620,61.9287
52.630,59.5074
52.640,71.2620
52.650,70.2905
52.660,71.2352
52.670,66.6070
52.680,65.8969
52.690,61.6212
52.700,69.9629
52.710,60.7124
52.720,64.1231
52.730,66.3611
52.740,69.9877
52.750,69.3628
52.760,64.0036
52.770,68.2672
52.780,73.8457
52.790,65.1734
52.800,70.0982
52.810,62.9220
52.820,70.0208
52.830,63.3624
52.840,75.0702
52.850,69.5317
52.860,69.1062
52.870,64.4993
52.880,68.1552
52.890,69.6435
52.900,77.3760
52.910,72.2315
52.920,73.6584
52.930,67.1254
52.940,77.3606
52.950,75.0927
52.960,70.3266
52.970,77.2823
52.980,76.3219
52.990,77.0332
53.000,73.8533
53.010,68.5710
53.020,75.6452
53.030,74.5128
53.040,70.4022
53.050,79.4857
53.060,75.2186
53.070,75.5479
53.080,77.8386
53.090,68.2336
53.100,78.6898
53.110,74.7452
53.120,70.2239
53.130,70.7399
53.140,71.9516
53.150,80.8477
53.160,73.6977
53.170,72.2795
53.180,71.3271
53.190,81.4168
53.200,75.8224
53.210,69.9283
53.220,70.5456
53.230,69.2303
53.240,77.4069
53.250,75.1676
53.260,78.3063
53.270,80.2072
53.280,71.3725
53.290,70.8158
53.300,70.9737
53.310,73.2135
53.320,71.1878
53.330,68.1783
53.340,72.9671
53.350,79.2423
53.360,70.5752
53.370,68.2460
53.380,77.6687
53.390,74.7214
53.400,78.4620
53.410,69.5003
53.420,76.4046
53.430,78.0456
53.440,67.9926
53.450,70.6118
53.460,71.9244
53.470,76.5618
53.480,71.9596
53.490,69.7638
53.500,68.7288
53.510,75.0827
53.520,76.5870
53.530,73.2914
53.540,71.5610
53.550,71.9030
53.560,69.6369
53.570,72.2020
53.580,63.6499
53.590,76.1538
53.600,71.5883
53.610,64.4245
53.620,66.8360
53.630,73.5886
53.640,70.9350
53.650,67.1618
53.660,72.6327
53.670,62.1067
53.680,71.8850
53.690,73.2380
53.700,73.5897
53.710,64.7098
53.720,65.6572
53.730,72.2822
53.740,72.0475
53.750,71.1501
53.760,60.2424
53.770,62.2405
53.780,68.0732
53.790,69.1836
53.800,62.6477
53.810,65.7869
53.820,62.9278
53.830,60.1294
53.840,67.0814
53.850,62.0180
53.860,62.5160
53.870,59.1790
53.880,65.8288
53.890,59.7721
53.900,67.5723
53.910,62.2098
53.920,64.2902
53.930,69.0778
53.940,71.3840
53.950,63.8748
53.960,67.8848
53.970,67.9897
53.980,69.9686
53.990,65.6682
54.000,61.6541
54.010,64.6430
54.020,71.4184
54.030,68.4774
54.040,60.8885
54.050,65.1305
54.060,69.4031
54.070,70.4967
54.080,63.6897
54.090,71.9890
54.100,66.9989
54.110,66.6933
54.120,62.2945
54.130,72.7725
54.140,67.0933
54.150,61.0915
54.160,63.7120
54.170,73.7811
54.180,63.2435
54.190,65.7148
54.200,62.9625
54.210,70.2101
54.220,68.8657
54.230,73.3184
54.240,67.4068
54.250,75.2221
54.260,64.6103
54.270,69.5169
54.280,72.0774
54.290,71.5705
54.300,70.0839
54.310,73.1093
54.320,77.1852
54.330,76.0334
54.340,75.4260
54.350,74.6110
54.360,72.9553
54.370,68.9561
54.380,68.4722
54.390,69.7394
54.400,77.2663
54.410,75.1970
54.420,79.0330
54.430,75.5081
54.440,71.2029
54.450,78.4766
54.460,76.6956
54.470,73.7765
54.480,80.4495
54.490,68.2669
54.500,77.6021
54.510,75.6063
54.520,76.3212
54.530,75.5989
54.540,76.0717
54.550,70.6676
54.560,70.1484
54.570,73.6542
54.580,74.7828
54.590,71.0273
54.600,80.1033
54.610,81.0702
54.620,73.1459
54.630,71.5932
54.640,71.7461
54.650,79.7078
54.660,69.5780
54.670,74.2748
54.680,76.2110
54.690,79.2304
54.700,69.5361
54.710,69.1068
54.720,69.4554
54.730,75.4136
54.740,75.3953
54.750,70.2494
54.760,75.8072
54.770,69.2962
54.780,80.9253
54.790,80.0530
54.800,78.8627
54.810,73.0173
54.820,73.4069
54.830,68.5757
54.840,70.5018
54.850,67.1152
54.860,73.5662
54.870,78.5232
54.880,77.2536
54.890,68.0013
54.900,74.4766
54.910,70.8143
54.920,68.4920
54.930,75.6191
54.940,71.5726
54.950,75.8457
54.960,75.7379
54.970,76.9226
54.980,73.7852
54.990,71.7695
55.000,66.5527
55.010,73.2031
55.020,66.2103
55.030,74.2838
55.040,71.1314
55.050,66.8135
55.060,68.6252
55.070,71.1595
55.080,66.9736
55.090,73.2816
55.100,73.1933
55.110,63.4376
55.120,67.8617
55.130,66.6258
55.140,69.3789
55.150,65.2910
55.160,69.2894
55.170,60.4414
55.180,68.9663
55.190,63.7255
55.200,59.9703
55.210,71.0620
55.220,66.9580
55.230,62.0664
55.240,67.6405
55.250,66.0607
55.260,59.7571
55.270,71.2749
55.280,64.0452
55.290,59.6297
55.300,62.9587
55.310,64.8653
55.320,62.8822
55.330,65.7461
55.340,69.8529
55.350,62.2213
55.360,64.8388
55.370,58.7710
55.380,70.3637
55.390,63.8077
55.400,70.4629
55.410,70.2689
55.420,60.4337
55.430,70.8290
55.440,64.5294
55.450,68.0772
55.460,62.4194
55.470,61.2592
55.480,69.6628
55.490,61.1173
55.500,69.1745
55.510,60.2911
55.520,63.8021
55.530,66.4930
55.540,66.8022
55.550,69.9927
55.560,68.0870
55.570,69.9528
55.580,62.7018
55.590,66.6782
55.600,74.2864
55.610,74.3245
55.620,68.7514
55.630,72.8950
55.640,71.4066
55.650,62.8087
55.660,70.1079
55.670,69.7122
55.680,73.1874
55.690,74.5647
55.700,73.9333
55.710,65.3163
55.720,68.6643
55.730,71.9251
55.740,74.2623
55.750,74.6706
55.760,71.7210
55.770,69.6967
55.780,73.9214
55.790,67.2385
55.800,72.1134
55.810,75.3200
55.820,77.8635
55.830,68.9748
55.840,72.6191
55.850,78.3242
55.860,73.8884
55.870,78.5466
55.880,74.3659
55.890,71.4841
55.900,71.3167
55.910,77.0216
55.920,70.4688
55.930,70.4849
55.940,74.5760
55.950,75.5475
55.960,73.7900
55.970,72.5733
55.980,79.2539
55.990,71.5652
56.000,76.6776
56.010,80.2541
56.020,71.7904
56.030,74.7152
56.040,77.3570
56.050,78.6610
56.060,72.0584
56.070,75.1107
56.080,76.8589
56.090,79.2077
56.100,73.4290
56.110,73.9889
56.120,75.5018
56.130,72.3958
56.140,70.7726
56.150,79.0554
56.160,74.1934
56.170,78.6381
56.180,70.4481
56.190,68.4397
56.200,78.1579
56.210,72.1397
56.220,76.7197
56.230,70.0258
56.240,79.9880
56.250,72.3552
56.260,78.1804
56.270,79.9206
56.280,70.6717
56.290,72.1239
56.300,68.4765
56.310,71.7280
56.320,69.1030
56.330,73.6134
56.340,74.4228
56.350,66.5589
56.360,72.8984
56.370,66.5227
56.380,77.7279
56.390,72.8212
56.400,67.8525
56.410,68.5625
56.420,75.1198
56.430,72.0459
56.440,68.9084
56.450,71.0640
56.460,74.8327
56.470,66.3633
56.480,63.7822
56.490,69.9897
56.500,75.0858
56.510,65.6550
56.520,70.7347
56.530,64.3784
56.540,63.2642
56.550,70.7025
56.560,73.0156
56.570,66.5033
56.580,65.7615
56.590,67.2278
56.600,71.4425
56.610,63.7777
56.620,64.5195
56.630,72.4237
56.640,65.9855
56.650,64.4275
56.660,70.1058
56.670,66.4695
56.680,66.6316
56.690,61.1804
56.700,69.5952
56.710,72.0429
56.720,61.5728
56.730,71.7360
56.740,61.1451
56.750,65.7643
56.760,70.9934
56.770,64.8451
56.780,67.4911
56.790,68.8956
56.800,63.4430
56.810,63.2035
56.820,67.4321
56.830,62.4361
56.840,64.5711
56.850,71.0458
56.860,64.8066
56.870,70.6883
56.880,63.3226
56.890,64.1664
56.900,67.9123
56.910,66.8657
56.920,68.3028
56.930,64.9334
56.940,63.0704
56.950,68.8924
56.960,66.4632
56.970,71.0164
56.980,66.3705
56.990,64.7425
57.000,66.9962
57.010,62.1846
57.020,74.0527
57.030,70.1109
57.040,68.8270
57.050,64.0924
57.060,62.8044
57.070,66.4088
57.080,64.6036
57.090,63.0998
57.100,67.2598
57.110,70.2273
57.120,66.0861
57.130,73.8868
57.140,67.7223
57.150,70.6172
57.160,66.4281
57.170,69.0226
57.180,71.2869
57.190,68.7126
57.200,75.9764
57.210,69.9362
57.220,69.1180
57.230,68.8872
57.240,77.5245
57.250,75.9248
57.260,67.4913
57.270,77.3320
57.280,74.6372
57.290,71.1500
57.300,72.7190
57.310,73.2697
57.320,79.2737
57.330,80.7817
57.340,74.6921
57.350,72.2464
57.360,69.7891
57.370,76.5708
57.380,69.1788
57.390,68.7209
57.400,78.5570
57.410,70.4019
57.420,76.3463
57.430,75.1043
57.440,72.8288
57.450,73.9585
57.460,78.4944
57.470,78.4196
57.480,74.2494
57.490,80.1119
57.500,71.3158
57.510,81.1597
57.520,74.0182
57.530,80.6790
57.540,80.8770
57.550,73.6737
57.560,74.9216
57.570,69.5609
57.580,78.2500
57.590,75.1807
57.600,73.4090
57.610,71.2577
57.620,70.0855
57.630,70.7877
57.640,75.7806
57.650,74.6996
57.660,78.5267
57.670,71.7622
57.680,76.7012
57.690,73.8877
57.700,74.7300
57.710,76.5462
57.720,69.5442
57.730,76.3407
57.740,75.8700
57.750,76.6311
57.760,73.3524
57.770,71.7375
57.780,75.9412
57.790,66.3330
57.800,66.8859
57.810,72.0267
57.820,77.2771
57.830,72.8665
57.840,69.0079
57.850,68.9836
57.860,70.1680
57.870,75.9147
57.880,66.6624
57.890,71.4279
57.900,70.9803
57.910,65.5746
57.920,64.7355
57.930,67.3639
57.940,65.4578
57.950,74.4848
57.960,73.1137
57.970,64.3521
57.980,67.5869
57.990,73.5930
58.000,61.5027
58.010,69.7526
58.020,62.2819
58.030,61.9149
58.040,71.5711
58.050,71.0714
58.060,60.3580
58.070,67.3847
58.080,65.1207
58.090,68.0467
58.100,62.1299
58.110,70.3652
58.120,60.1442
58.130,65.0937
58.140,60.8193
58.150,71.9961
58.160,64.3379
58.170,66.1665
58.180,67.1472
58.190,66.0813
58.200,59.5055
58.210,64.5824
58.220,62.4414
58.230,68.9677
58.240,65.0384
58.250,71.5479
58.260,63.2009
58.270,64.7473
58.280,65.5852
58.290,68.3922
58.300,68.9685
58.310,68.3712
58.320,60.7897
58.330,63.9174
58.340,64.0310
58.350,71.9648
58.360,71.6303
58.370,61.2392
58.380,72.9939
58.390,71.5205
58.400,64.2817
58.410,71.8349
58.420,68.1763
58.430,69.2534
58.440,63.7214
58.450,71.8927
58.460,65.5985
58.470,63.9921
58.480,62.3059
58.490,64.9724
58.500,62.9513
58.510,69.5282
58.520,68.1964
58.530,75.7392
58.540,65.1484
58.550,72.9538
58.560,64.7767
58.570,71.7904
58.580,71.4198
58.590,64.9899
58.600,71.6623
58.610,66.7663
58.620,75.1857
58.630,78.3701
58.640,77.6730
58.650,75.2897
58.660,77.6494
58.670,74.3603
58.680,70.8073
58.690,73.7758
58.700,70.5538
58.710,68.6742
58.720,78.4991
58.730,77.9970
58.740,78.3351
58.750,80.5528
58.760,78.8476
58.770,73.1263
58.780,76.5650
58.790,81.0628
58.800,72.4270
58.810,80.0249
58.820,72.1114
58.830,80.3621
58.840,81.2667
58.850,73.0170
58.860,79.3429
58.870,76.7600
58.880,72.3017
58.890,80.2905
58.900,79.7095
58.910,73.5701
58.920,70.6839
58.930,70.9863
58.940,74.2397
58.950,69.6403
58.960,74.0315
58.970,73.2038
58.980,69.6843
58.990,73.3321
59.000,78.8349
59.010,78.4691
59.020,74.0617
59.030,72.1652
59.040,73.9897
59.050,80.2565
59.060,77.6736
59.070,68.5289
59.080,74.8793
59.090,75.4537
59.100,80.3807
59.110,80.6519
59.120,70.5104
59.130,71.6355
59.140,76.2654
59.150,79.6539
59.160,70.2043
59.170,76.8845
59.180,75.1085
59.190,70.5711
59.200,74.0889
59.210,74.1194
59.220,74.2763
59.230,77.5188
59.240,68.8003
59.250,76.6148
59.260,66.1096
59.270,72.0767
59.280,76.9175
59.290,72.0300
59.300,75.1590
59.310,75.4201
59.320,75.2910
59.330,64.7340
59.340,72.5850
59.350,72.5816
59.360,68.7061
59.370,63.9105
59.380,72.0892
59.390,67.1033
59.400,66.3888
59.410,72.0069
59.420,74.0800
59.430,62.2589
59.440,63.4948
59.450,61.3243
59.460,66.2814
59.470,62.3600
59.480,68.4899
59.490,62.0937
59.500,65.3252
59.510,61.7079
59.520,66.9239
59.530,59.9278
59.540,62.2372
59.550,64.5891
59.560,68.5455
59.570,66.1408
59.580,64.4296
59.590,59.6055
59.600,63.7890
59.610,66.3162
59.620,63.0307
59.630,68.7111
59.640,68.5806
59.650,70.0816
59.660,72.0013
59.670,69.5315
59.680,71.2646
59.690,66.6189
59.700,62.4148
59.710,60.7942
59.720,63.5733
59.730,71.3991
59.740,69.5047
59.750,72.0121
59.760,63.3007
59.770,62.6308
59.780,64.4873
59.790,68.2799
59.800,69.6215
59.810,73.3888
59.820,73.5394
59.830,70.4222
59.840,68.3217
59.850,66.9445
59.860,67.8861
59.870,67.3415
59.880,64.9977
59.890,67.7020
59.900,64.2461
59.910,72.9781
59.920,73.8290
59.930,67.6206
59.940,74.9569
59.950,70.1860
59.960,64.5095
59.970,74.6908
59.980,73.5407
59.990,70.6363
