t_s,envelope_uV
0.000,60.9290
0.010,66.2661
0.020,57.5381
0.030,64.2582
0.040,65.3084
0.050,59.3488
0.060,68.0565
0.070,59.5235
0.080,65.9655
0.090,66.2394
0.100,64.1980
0.110,65.0828
0.120,58.5622
0.130,63.5814
0.140,59.0089
0.150,58.6564
0.160,59.6061
0.170,58.8318
0.180,69.6599
0.190,69.0844
0.200,64.8885
0.210,66.7080
0.220,61.0802
0.230,65.5486
0.240,68.2802
0.250,69.0784
0.260,64.0387
0.270,67.6484
0.280,60.4984
0.290,70.2880
0.300,65.0682
0.310,65.3360
0.320,70.0183
0.330,63.5362
0.340,67.4073
0.350,70.2902
0.360,61.3653
0.370,63.9513
0.380,69.9635
0.390,66.2489
0.400,66.3916
0.410,64.3827
0.420,64.3329
0.430,65.1137
0.440,70.9030
0.450,64.1459
0.460,60.8703
0.470,60.5575
0.480,64.5933
0.490,60.4657
0.500,68.2011
0.510,68.5729
0.520,58.7011
0.530,70.2738
0.540,69.1031
0.550,61.3869
0.560,65.4850
0.570,64.4769
0.580,61.3390
0.590,57.4821
0.600,61.2678
0.610,66.0003
0.620,63.5695
0.630,58.9156
0.640,64.0093
0.650,65.5584
0.660,66.3336
0.670,61.8852
0.680,57.1725
0.690,57.1117
0.700,64.8291
0.710,65.2722
0.720,54.7428
0.730,65.4848
0.740,57.0782
0.750,61.3163
0.760,57.0420
0.770,55.9833
0.780,60.5591
0.790,63.5080
0.800,57.7616
0.810,55.6062
0.820,54.9904
0.830,60.5539
0.840,57.9219
0.850,52.8398
0.860,52.6663
0.870,51.9568
0.880,55.2323
0.890,63.3807
0.900,62.0389
0.910,54.8794
0.920,52.9833
0.930,51.5092
0.940,56.2668
0.950,56.4858
0.960,58.7122
0.970,56.9357
0.980,55.8903
0.990,50.5750
1.000,52.6347
1.010,58.9153
1.020,55.5623
1.030,56.8594
1.040,53.5127
1.050,52.9007
1.060,51.6227
1.070,54.1688
1.080,58.4299
1.090,53.2440
1.100,51.2388
1.110,57.2759
1.120,61.9326
1.130,51.8347
1.140,55.1979
1.150,58.7197
1.160,53.8825
1.170,60.2786
1.180,60.4355
1.190,58.4893
1.200,61.3635
1.210,52.4616
1.220,63.1083
1.230,58.0812
1.240,59.2318
1.250,63.0864
1.260,60.5496
1.270,56.8459
1.280,54.0623
1.290,60.0893
1.300,53.9761
1.310,59.7843
1.320,62.2673
1.330,55.2372
1.340,59.1663
1.350,64.0991
1.360,62.3426
1.370,56.0502
1.380,55.4665
1.390,62.0109
1.400,60.7766
1.410,58.2797
1.420,62.2526
1.430,59.2748
1.440,64.7253
1.450,65.7326
1.460,57.7448
1.470,58.4188
1.480,67.2134
1.490,56.4359
1.500,60.8728
1.510,64.2885
1.520,68.5317
1.530,62.1847
1.540,66.5001
1.550,57.6162
1.560,57.8579
1.570,61.2857
1.580,64.0166
1.590,64.2935
1.600,60.5460
1.610,66.3653
1.620,59.7319
1.630,64.4589
1.640,68.9633
1.650,68.9552
1.660,68.2401
1.670,68.2343
1.680,71.2909
1.690,63.0815
1.700,67.4891
1.710,69.5173
1.720,65.6040
1.730,61.8632
1.740,61.0037
1.750,60.9211
1.760,69.9411
1.770,66.8819
1.780,67.1079
1.790,70.6820
1.800,70.9661
1.810,70.2260
1.820,65.7019
1.830,71.5298
1.840,60.2123
1.850,66.1129
1.860,63.9997
1.870,59.6786
1.880,66.1335
1.890,68.3655
1.900,61.0757
1.910,62.3978
1.920,68.2423
1.930,62.3460
1.940,68.9092
1.950,63.2163
1.960,67.9044
1.970,60.1266
1.980,66.9669
1.990,67.0578
2.000,59.8321
2.010,69.0429
2.020,67.5263
2.030,65.6831
2.040,63.0796
2.050,59.5632
2.060,65.6657
2.070,65.9356
2.080,67.5409
2.090,59.9544
2.100,61.6076
2.110,65.6281
2.120,62.2538
2.130,57.7641
2.140,60.9267
2.150,57.8639
2.160,64.2529
2.170,63.0926
2.180,62.1472
2.190,57.8865
2.200,63.0092
2.210,63.7771
2.220,58.7669
2.230,64.6101
2.240,54.4662
2.250,55.4773
2.260,55.4736
2.270,60.0243
2.280,62.9746
2.290,53.1378
2.300,59.5155
2.310,60.8539
2.320,56.1783
2.330,63.3024
2.340,53.7559
2.350,54.5267
2.360,59.5937
2.370,63.0641
2.380,56.0034
2.390,55.9248
2.400,56.5420
2.410,57.5970
2.420,60.4843
2.430,62.0029
2.440,51.3086
2.450,59.1632
2.460,52.1583
2.470,60.7001
2.480,58.6026
2.490,61.6905
2.500,54.6996
2.510,61.1339
2.520,50.2760
2.530,61.7204
2.540,51.1334
2.550,59.4695
2.560,56.1917
2.570,55.6037
2.580,54.1986
2.590,62.7609
2.600,61.2324
2.610,53.8404
2.620,60.7219
2.630,58.3456
2.640,56.7801
2.650,60.6818
2.660,61.6335
2.670,62.7380
2.680,54.2749
2.690,55.6081
2.700,60.8032
2.710,63.7661
2.720,57.7491
2.730,62.0201
2.740,63.6497
2.750,57.4924
2.760,59.3707
2.770,53.7494
2.780,62.8099
2.790,64.8049
2.800,58.2008
2.810,58.6658
2.820,58.0879
2.830,54.5998
2.840,66.1142
2.850,60.8335
2.860,60.3266
2.870,60.9710
2.880,56.4963
2.890,64.9810
2.900,66.6096
2.910,61.0410
2.920,60.1355
2.930,57.0743
2.940,67.6009
2.950,69.0761
2.960,69.2580
2.970,59.3366
2.980,64.2279
2.990,68.2982
3.000,68.8019
3.010,60.4044
3.020,69.1513
3.030,63.3554
3.040,66.2809
3.050,67.3500
3.060,66.4202
3.070,61.4182
3.080,60.4148
3.090,67.2809
3.100,63.5170
3.110,65.4215
3.120,70.1367
3.130,68.4707
3.140,71.2641
3.150,62.7523
3.160,68.5207
3.170,64.0346
3.180,60.9659
3.190,65.3550
3.200,61.3328
3.210,63.7635
3.220,67.1867
3.230,67.6872
3.240,63.4566
3.250,64.3559
3.260,63.9785
3.270,67.6529
3.280,64.0843
3.290,71.5455
3.300,70.5659
3.310,66.4664
3.320,66.9589
3.330,68.4095
3.340,65.9490
3.350,59.9429
3.360,68.1198
3.370,60.2147
3.380,65.2444
3.390,68.7263
3.400,62.6167
3.410,63.8643
3.420,68.9588
3.430,59.1700
3.440,66.0427
3.450,64.5678
3.460,58.5320
3.470,66.5448
3.480,61.4879
3.490,66.8758
3.500,58.2460
3.510,57.7279
3.520,59.1584
3.530,62.4255
3.540,67.7413
3.550,57.1973
3.560,62.7311
3.570,59.9703
3.580,58.5282
3.590,61.4297
3.600,59.5802
3.610,63.3906
3.620,61.8364
3.630,54.0677
3.640,65.1458
3.650,58.2210
3.660,59.0970
3.670,54.3003
3.680,60.1222
3.690,62.3917
3.700,62.1867
3.710,52.6970
3.720,54.6011
3.730,54.4027
3.740,63.9709
3.750,60.2394
3.760,52.7466
3.770,55.3172
3.780,52.6896
3.790,55.9860
3.800,56.7664
3.810,53.2569
3.820,57.2369
3.830,54.0653
3.840,60.0530
3.850,60.4026
3.860,59.1898
3.870,57.0017
3.880,59.8530
3.890,53.3227
3.900,62.0232
3.910,62.5401
3.920,56.0968
3.930,59.9021
3.940,57.4132
3.950,54.1818
3.960,60.8530
3.970,57.2980
3.980,55.3145
3.990,58.2869
4.000,61.9305
4.010,61.8099
4.020,62.9267
4.030,62.7690
4.040,52.8566
4.050,53.6188
4.060,54.8635
4.070,54.5884
4.080,53.4297
4.090,57.9479
4.100,55.9116
4.110,61.0200
4.120,58.4090
4.130,55.9056
4.140,60.1389
4.150,56.8235
4.160,63.8550
4.170,53.0004
4.180,62.3400
4.190,55.6041
4.200,63.2731
4.210,55.2201
4.220,62.7551
4.230,58.2942
4.240,62.6331
4.250,61.9536
4.260,62.5413
4.270,56.4158
4.280,55.7733
4.290,56.3091
4.300,59.1181
4.310,63.5090
4.320,64.3325
4.330,58.9267
4.340,64.8143
4.350,68.7536
4.360,59.6638
4.370,68.6874
4.380,59.1716
4.390,68.8552
4.400,65.2544
4.410,64.7438
4.420,63.2840
4.430,65.2753
4.440,69.8976
4.450,67.0601
4.460,66.7138
4.470,63.2559
4.480,64.3130
4.490,60.2098
4.500,62.5750
4.510,59.7417
4.520,65.6657
4.530,69.7231
4.540,67.0459
4.550,62.8598
4.560,62.5411
4.570,60.9020
4.580,70.4084
4.590,69.5938
4.600,69.4291
4.610,64.5874
4.620,65.4164
4.630,70.3961
4.640,70.9632
4.650,68.3103
4.660,67.0060
4.670,64.9401
4.680,63.7539
4.690,65.2264
4.700,67.0650
4.710,70.6896
4.720,70.5686
4.730,60.8896
4.740,69.7059
4.750,70.4446
4.760,60.0984
4.770,63.9069
4.780,63.3953
4.790,61.5749
4.800,65.0916
4.810,60.4388
4.820,68.3451
4.830,69.4352
4.840,61.4038
4.850,60.3225
4.860,67.2343
4.870,63.1922
4.880,65.3399
4.890,62.7123
4.900,60.2437
4.910,63.8073
4.920,58.9197
4.930,62.3062
4.940,61.8062
4.950,60.7893
4.960,65.4800
4.970,65.8099
4.980,64.5623
4.990,61.2794
5.000,56.8781
5.010,66.7217
5.020,58.9324
5.030,63.2285
5.040,60.5503
5.050,64.2367
5.060,59.6673
5.070,54.2454
5.080,62.6697
5.090,60.9277
5.100,53.7811
5.110,60.6144
5.120,57.8523
5.130,62.8560
5.140,63.0498
5.150,58.5799
5.160,61.9540
5.170,55.2181
5.180,55.6854
5.190,59.0783
5.200,58.3606
5.210,63.5570
5.220,55.5296
5.230,61.1256
5.240,62.7701
5.250,61.2348
5.260,63.1775
5.270,56.4445
5.280,58.0201
5.290,54.4098
5.300,61.1186
5.310,62.7569
5.320,60.6317
5.330,54.1295
5.340,61.6066
5.350,53.5682
5.360,59.9760
5.370,54.9031
5.380,62.4555
5.390,59.4438
5.400,61.4949
5.410,51.8318
5.420,56.2302
5.430,55.1251
5.440,61.5202
5.450,62.5701
5.460,62.5664
5.470,61.9790
5.480,60.1359
5.490,62.1485
5.500,55.5126
5.510,53.3339
5.520,54.9784
5.530,57.4556
5.540,62.2320
5.550,63.5003
5.560,59.8164
5.570,55.4594
5.580,63.6901
5.590,61.4860
5.600,56.5951
5.610,63.5525
5.620,59.8774
5.630,61.8297
5.640,62.3490
5.650,55.8629
5.660,60.5528
5.670,57.0281
5.680,55.4451
5.690,60.9737
5.700,64.9798
5.710,60.2593
5.720,61.8452
5.730,61.1419
5.740,58.3826
5.750,63.5903
5.760,67.5306
5.770,59.1436
5.780,63.9171
5.790,66.7057
5.800,63.5759
5.810,59.7163
5.820,61.5367
5.830,58.2320
5.840,70.2805
5.850,69.2952
5.860,59.2123
5.870,70.4041
5.880,60.7537
5.890,60.8041
5.900,68.4793
5.910,68.6872
5.920,62.2639
5.930,61.7478
5.940,69.3686
5.950,70.5206
5.960,70.4800
5.970,66.6326
5.980,68.3084
5.990,63.6352
6.000,70.6029
6.010,66.2293
6.020,63.3743
6.030,65.5630
6.040,65.5175
6.050,66.8956
6.060,62.6490
6.070,63.0494
6.080,60.7619
6.090,69.5321
6.100,66.8860
6.110,67.8751
6.120,60.4412
6.130,66.3090
6.140,62.4273
6.150,65.8503
6.160,68.3239
6.170,60.6543
6.180,66.3108
6.190,62.4289
6.200,70.9282
6.210,68.4815
6.220,68.5474
6.230,63.5368
6.240,68.5143
6.250,69.4860
6.260,70.2903
6.270,61.3967
6.280,69.7013
6.290,63.8405
6.300,61.7188
6.310,62.6334
6.320,63.4113
6.330,62.3535
6.340,57.5832
6.350,60.4114
6.360,57.3767
6.370,60.8983
6.380,61.2591
6.390,62.9584
6.400,60.1252
6.410,64.9958
6.420,58.5590
6.430,66.2263
6.440,64.0228
6.450,61.3178
6.460,58.9226
6.470,64.5048
6.480,54.9832
6.490,55.7436
6.500,62.7960
6.510,59.9068
6.520,57.0112
6.530,62.2886
6.540,59.8447
6.550,65.3262
6.560,59.3096
6.570,57.6315
6.580,63.5099
6.590,64.4077
6.600,61.5313
6.610,58.5366
6.620,62.7588
6.630,52.7055
6.640,53.3421
6.650,62.7666
6.660,60.4433
6.670,56.2617
6.680,61.0218
6.690,51.6142
6.700,59.8420
6.710,63.0314
6.720,57.2862
6.730,51.6687
6.740,54.2836
6.750,56.6673
6.760,56.2198
6.770,62.3967
6.780,59.4100
6.790,62.7069
6.800,62.9078
6.810,56.0328
6.820,53.2482
6.830,61.5122
6.840,58.1541
6.850,51.0605
6.860,54.3101
6.870,56.2079
6.880,53.6482
6.890,55.4781
6.900,52.5308
6.910,62.1436
6.920,54.1316
6.930,60.6284
6.940,56.4680
6.950,56.6839
6.960,52.4613
6.970,62.9879
6.980,62.8675
6.990,61.6830
7.000,64.7705
7.010,55.9112
7.020,60.2811
7.030,64.5072
7.040,59.8509
7.050,57.2073
7.060,64.5582
7.070,61.9230
7.080,65.4982
7.090,56.8813
7.100,59.9274
7.110,60.0589
7.120,57.4047
7.130,58.3076
7.140,64.2785
7.150,67.8986
7.160,57.7383
7.170,65.3225
7.180,67.9036
7.190,56.9839
7.200,60.7703
7.210,64.0694
7.220,57.7071
7.230,63.3324
7.240,65.1362
7.250,65.9931
7.260,59.0932
7.270,67.2544
7.280,59.6488
7.290,59.1414
7.300,66.9144
7.310,62.8404
7.320,64.6747
7.330,61.1974
7.340,70.8410
7.350,61.5552
7.360,70.4441
7.370,65.1861
7.380,67.9278
7.390,64.9277
7.400,67.0798
7.410,62.9618
7.420,65.8084
7.430,68.5665
7.440,68.3295
7.450,69.1756
7.460,71.4161
7.470,63.5254
7.480,70.8600
7.490,70.3895
7.500,66.7054
7.510,62.0974
7.520,65.5291
7.530,69.9926
7.540,70.2842
7.550,64.0912
7.560,70.8691
7.570,62.7136
7.580,63.1275
7.590,60.7204
7.600,68.3561
7.610,64.5536
7.620,60.4719
7.630,70.4052
7.640,68.2556
7.650,64.1020
7.660,68.3933
7.670,64.2775
7.680,67.6577
7.690,61.0036
7.700,60.9283
7.710,68.6558
7.720,60.5403
7.730,60.6247
7.740,63.2200
7.750,61.7409
7.760,68.3714
7.770,61.7677
7.780,58.4023
7.790,69.2783
7.800,67.9970
7.810,62.8672
7.820,58.3339
7.830,56.7732
7.840,66.7217
7.850,65.9131
7.860,59.8201
7.870,57.1429
7.880,65.5394
7.890,63.2189
7.900,65.1216
7.910,64.5595
7.920,56.6272
7.930,57.9354
7.940,56.8837
7.950,56.0178
7.960,61.4925
7.970,58.7688
7.980,64.8972
7.990,57.7046
8.000,63.4334
8.010,56.1072
8.020,63.5965
8.030,60.4042
8.040,53.6476
8.050,64.1098
8.060,61.2546
8.070,55.2713
8.080,55.8614
8.090,55.4159
8.100,56.9743
8.110,60.1649
8.120,54.9574
8.130,62.6033
8.140,59.5655
8.150,57.4626
8.160,59.9602
8.170,57.2581
8.180,52.9652
8.190,60.9133
8.200,54.1723
8.210,56.5143
8.220,58.3880
8.230,60.6887
8.240,55.4993
8.250,60.9025
8.260,58.3640
8.270,55.2350
8.280,61.7941
8.290,62.4494
8.300,53.6770
8.310,56.1598
8.320,62.4572
8.330,56.9212
8.340,55.7593
8.350,54.9367
8.360,52.4919
8.370,60.7323
8.380,54.9932
8.390,53.8314
8.400,53.2060
8.410,56.7345
8.420,62.4933
8.430,64.6718
8.440,62.0230
8.450,60.6010
8.460,55.2406
8.470,56.6746
8.480,60.1415
8.490,61.4043
8.500,59.2306
8.510,66.1268
8.520,57.5155
8.530,56.4845
8.540,62.4512
8.550,65.6465
8.560,66.9179
8.570,64.2930
8.580,56.4489
8.590,63.0074
8.600,68.3529
8.610,65.0889
8.620,68.3938
8.630,69.3554
8.640,64.0584
8.650,63.9525
8.660,63.2193
8.670,61.0901
8.680,58.2988
8.690,67.7046
8.700,62.1205
8.710,65.4380
8.720,63.2910
8.730,60.0641
8.740,70.6740
8.750,65.9918
8.760,63.4597
8.770,67.2950
8.780,60.1824
8.790,70.0853
8.800,69.3514
8.810,60.5615
8.820,69.2970
8.830,65.3980
8.840,71.3605
8.850,71.7047
8.860,72.6741
8.870,61.1108
8.880,68.0471
8.890,63.5553
8.900,69.6639
8.910,67.1327
8.920,70.1927
8.930,66.3829
8.940,64.7751
8.950,65.9878
8.960,67.3075
8.970,61.6169
8.980,62.2502
8.990,64.6607
9.000,71.1596
9.010,72.1770
9.020,70.7350
9.030,70.1093
9.040,68.3060
9.050,61.5830
9.060,68.6303
9.070,66.8639
9.080,60.2581
9.090,61.1760
9.100,65.1172
9.110,70.8912
9.120,70.6822
9.130,64.9249
9.140,63.3564
9.150,70.3072
9.160,70.1063
9.170,59.0148
9.180,60.2965
9.190,60.4563
9.200,59.4716
9.210,61.5266
9.220,60.1186
9.230,67.7316
9.240,66.8102
9.250,63.1305
9.260,63.0319
9.270,60.5411
9.280,62.5307
9.290,63.4417
9.300,63.7220
9.310,61.1757
9.320,55.5322
9.330,58.1935
9.340,65.0525
9.350,57.9803
9.360,56.4685
9.370,59.2503
9.380,65.9162
9.390,62.3382
9.400,57.4896
9.410,53.6084
9.420,59.9181
9.430,55.4206
9.440,57.4284
9.450,59.1737
9.460,57.6986
9.470,60.6624
9.480,56.7493
9.490,60.8875
9.500,55.9889
9.510,58.7913
9.520,63.1359
9.530,62.6714
9.540,61.0470
9.550,52.9415
9.560,59.9350
9.570,57.4658
9.580,56.4983
9.590,56.6039
9.600,58.2746
9.610,61.4117
9.620,55.8246
9.630,57.3377
9.640,61.2227
9.650,62.9424
9.660,62.5810
9.670,59.0384
9.680,62.8002
9.690,56.8598
9.700,53.2898
9.710,52.2616
9.720,61.9979
9.730,61.0808
9.740,55.4317
9.750,59.8413
9.760,58.7131
9.770,53.8868
9.780,57.6130
9.790,63.6661
9.800,52.9317
9.810,61.3850
9.820,62.5426
9.830,57.0946
9.840,60.6149
9.850,56.3806
9.860,55.6621
9.870,54.1700
9.880,62.8013
9.890,55.3670
9.900,62.6290
9.910,55.5413
9.920,62.2336
9.930,60.5705
9.940,59.6391
9.950,60.8905
9.960,61.5623
9.970,56.0936
9.980,66.3529
9.990,66.3137
10.000,62.3725
10.010,64.9328
10.020,62.3922
10.030,65.6105
10.040,67.3484
10.050,67.9980
10.060,57.5128
10.070,66.8676
10.080,68.7230
10.090,63.4519
10.100,62.0008
10.110,66.9293
10.120,66.4208
10.130,69.0172
10.140,66.3082
10.150,65.2662
10.160,68.7196
10.170,70.6337
10.180,62.4787
10.190,71.0726
10.200,70.3631
10.210,65.5977
10.220,60.6996
10.230,69.2863
10.240,60.6265
10.250,61.7910
10.260,66.3285
10.270,61.9312
10.280,66.0331
10.290,72.4438
10.300,61.7646
10.310,62.6518
10.320,69.5257
10.330,64.2061
10.340,61.7347
10.350,68.1956
10.360,65.9163
10.370,65.4936
10.380,66.6689
10.390,61.4753
10.400,70.0746
10.410,61.8869
10.420,69.7631
10.430,63.4829
10.440,70.0131
10.450,69.7122
10.460,70.5868
10.470,70.5901
10.480,63.7023
10.490,70.9704
10.500,62.3926
10.510,68.1702
10.520,63.1137
10.530,64.0301
10.540,69.7771
10.550,62.1412
10.560,67.4824
10.570,61.6493
10.580,70.7885
10.590,58.9784
10.600,59.2746
10.610,59.1191
10.620,68.4898
10.630,59.3114
10.640,69.5283
10.650,60.6860
10.660,69.0484
10.670,66.5479
10.680,64.6961
10.690,65.5097
10.700,60.5205
10.710,67.6509
10.720,63.2561
10.730,67.9858
10.740,65.5279
10.750,62.3151
10.760,57.5928
10.770,63.2276
10.780,57.7443
10.790,63.5971
10.800,56.6927
10.810,61.6192
10.820,63.9135
10.830,60.0933
10.840,55.9648
10.850,60.8465
10.860,57.3199
10.870,64.2148
10.880,63.2747
10.890,53.5441
10.900,57.2847
10.910,63.4837
10.920,55.5707
10.930,56.1677
10.940,64.2324
10.950,62.0842
10.960,62.0304
10.970,56.6084
10.980,58.1732
10.990,53.0088
11.000,53.3247
11.010,53.5353
11.020,58.9921
11.030,59.9682
11.040,55.2479
11.050,58.2145
11.060,58.8066
11.070,52.9932
11.080,53.0019
11.090,59.6092
11.100,52.1682
11.110,55.6514
11.120,54.4561
11.130,56.7465
11.140,54.2315
11.150,52.9070
11.160,57.1040
11.170,56.5449
11.180,60.0178
11.190,61.4965
11.200,53.8113
11.210,53.9740
11.220,64.3345
11.230,63.2866
11.240,62.3457
11.250,54.4556
11.260,60.5304
11.270,54.9583
11.280,54.0609
11.290,54.0063
11.300,60.8458
11.310,55.0818
11.320,63.6317
11.330,62.7008
11.340,55.8368
11.350,66.3342
11.360,58.2679
11.370,66.3384
11.380,67.1570
11.390,63.5155
11.400,58.1561
11.410,62.7725
11.420,63.7389
11.430,58.9153
11.440,68.2184
11.450,68.4092
11.460,65.7100
11.470,64.9432
11.480,64.4593
11.490,67.8700
11.500,67.2235
11.510,68.0831
11.520,66.5333
11.530,70.1611
11.540,67.2004
11.550,67.9876
11.560,70.0832
11.570,64.8137
11.580,68.1573
11.590,61.8930
11.600,61.8268
11.610,60.7102
11.620,63.0774
11.630,63.2266
11.640,66.7840
11.650,65.0528
11.660,67.1663
11.670,63.0837
11.680,65.5218
11.690,64.0578
11.700,66.7417
11.710,67.0651
11.720,71.1249
11.730,64.7404
11.740,64.0999
11.750,72.6831
11.760,70.4600
11.770,68.1034
11.780,70.1786
11.790,65.6272
11.800,69.1507
11.810,63.4604
11.820,66.4247
11.830,69.2310
11.840,70.2823
11.850,62.2119
11.860,68.2775
11.870,67.3761
11.880,67.7830
11.890,64.1214
11.900,70.7656
11.910,62.5731
11.920,61.6611
11.930,63.1971
11.940,61.7920
11.950,69.4806
11.960,65.0775
11.970,70.6514
11.980,67.0091
11.990,68.7467
12.000,64.8553
12.010,66.3828
12.020,64.1499
12.030,65.1048
12.040,63.6938
12.050,67.9073
12.060,67.1278
12.070,68.0057
12.080,66.0671
12.090,67.8275
12.100,67.7456
12.110,60.9704
12.120,67.2952
12.130,67.1262
12.140,59.1583
12.150,63.7431
12.160,61.5318
12.170,56.6675
12.180,66.2110
12.190,63.1941
12.200,59.4002
12.210,61.2137
12.220,66.7588
12.230,62.7995
12.240,63.4202
12.250,63.8918
12.260,58.9749
12.270,64.6743
12.280,54.8610
12.290,59.1358
12.300,63.6903
12.310,56.9198
12.320,59.1123
12.330,56.3547
12.340,56.1066
12.350,60.4136
12.360,55.2681
12.370,54.7671
12.380,62.6281
12.390,61.4927
12.400,52.3383
12.410,62.1380
12.420,61.3228
12.430,52.9356
12.440,58.5508
12.450,60.3537
12.460,58.0221
12.470,59.8655
12.480,58.6904
12.490,57.1506
12.500,53.0355
12.510,52.8670
12.520,53.1619
12.530,61.4318
12.540,60.0745
12.550,52.6825
12.560,60.6445
12.570,61.6859
12.580,59.4751
12.590,59.4185
12.600,58.7450
12.610,53.6763
12.620,57.0008
12.630,63.5811
12.640,53.2280
12.650,63.6138
12.660,63.1804
12.670,57.3588
12.680,64.3808
12.690,55.6652
12.700,64.5524
12.710,53.8882
12.720,57.5699
12.730,54.2964
12.740,56.5733
12.750,61.8101
12.760,64.6584
12.770,66.4456
12.780,58.5892
12.790,65.5147
12.800,61.9461
12.810,64.8009
12.820,64.2987
12.830,57.4336
12.840,66.1787
12.850,59.2778
12.860,63.9240
12.870,60.2824
12.880,68.1265
12.890,62.3450
12.900,66.1265
12.910,67.8443
12.920,64.5741
12.930,63.9086
12.940,60.3900
12.950,62.2140
12.960,66.7344
12.970,69.6562
12.980,65.6427
12.990,60.5127
13.000,65.4616
13.010,67.2780
13.020,61.7433
13.030,70.7335
13.040,70.8986
13.050,70.9052
13.060,64.1180
13.070,69.8809
13.080,70.6372
13.090,63.1177
13.100,63.3232
13.110,68.2651
13.120,65.8329
13.130,68.7979
13.140,65.5077
13.150,63.5027
13.160,71.0496
13.170,64.7971
13.180,63.4901
13.190,65.9937
13.200,73.5924
13.210,62.6979
13.220,69.5478
13.230,70.0915
13.240,66.0546
13.250,64.8482
13.260,62.1296
13.270,62.1940
13.280,64.0922
13.290,72.1738
13.300,65.4504
13.310,71.9214
13.320,62.4817
13.330,62.3945
13.340,69.2465
13.350,70.1374
13.360,62.1433
13.370,71.7893
13.380,69.3323
13.390,63.6863
13.400,65.7273
13.410,67.2776
13.420,64.0422
13.430,64.0584
13.440,68.9377
13.450,65.6514
13.460,65.2035
13.470,67.5641
13.480,59.7657
13.490,59.3976
13.500,69.3665
13.510,69.6314
13.520,57.8703
13.530,65.4630
13.540,67.8941
13.550,60.4442
13.560,68.5887
13.570,60.9568
13.580,58.7715
13.590,65.0232
13.600,64.3960
13.610,61.8310
13.620,59.6696
13.630,67.5191
13.640,66.6856
13.650,60.2932
13.660,54.9359
13.670,61.5464
13.680,60.3933
13.690,61.0808
13.700,61.7225
13.710,55.2494
13.720,55.7837
13.730,64.7431
13.740,57.2936
13.750,54.1655
13.760,56.5308
13.770,62.1588
13.780,64.0097
13.790,53.9186
13.800,60.2319
13.810,56.2357
13.820,54.5370
13.830,52.5101
13.840,60.2494
13.850,56.1691
13.860,58.1940
13.870,54.1796
13.880,61.8011
13.890,62.3603
13.900,62.5205
13.910,60.5274
13.920,55.7770
13.930,57.2225
13.940,52.2479
13.950,62.0845
13.960,61.3308
13.970,59.3237
13.980,52.2652
13.990,61.8731
14.000,54.0791
14.010,62.4369
14.020,57.8520
14.030,54.0975
14.040,63.4859
14.050,57.1032
14.060,63.4166
14.070,60.4881
14.080,53.7655
14.090,64.4146
14.100,55.7155
14.110,57.7874
14.120,61.0930
14.130,63.7605
14.140,59.1713
14.150,64.9163
14.160,55.7449
14.170,61.6390
14.180,58.5012
14.190,63.7953
14.200,66.0474
14.210,57.4211
14.220,56.1886
14.230,65.6400
14.240,59.8840
14.250,65.0901
14.260,61.5199
14.270,65.5665
14.280,62.9320
14.290,67.5048
14.300,59.5096
14.310,59.1223
14.320,61.4293
14.330,61.0755
14.340,66.5443
14.350,67.1012
14.360,58.9771
14.370,62.2033
14.380,66.5640
14.390,66.3934
14.400,64.6625
14.410,59.6772
14.420,65.9963
14.430,71.0750
14.440,68.8868
14.450,62.6658
14.460,66.8236
14.470,65.6710
14.480,66.1677
14.490,69.5707
14.500,69.6942
14.510,69.7768
14.520,63.1032
14.530,61.5641
14.540,71.3599
14.550,71.7895
14.560,64.1175
14.570,67.3707
14.580,62.6006
14.590,71.1684
14.600,62.8223
14.610,61.9472
14.620,70.1610
14.630,65.5242
14.640,63.7976
14.650,72.9316
14.660,67.4109
14.670,72.6036
14.680,69.7058
14.690,73.5234
14.700,69.6443
14.710,73.6525
14.720,69.6061
14.730,61.8246
14.740,68.2360
14.750,65.1588
14.760,64.0149
14.770,71.6916
14.780,66.6900
14.790,62.6738
14.800,72.4860
14.810,62.2376
14.820,67.5575
14.830,68.0182
14.840,70.8997
14.850,67.1408
14.860,65.1274
14.870,68.3024
14.880,60.2802
14.890,64.4474
14.900,63.2297
14.910,65.0224
14.920,59.6292
14.930,60.7789
14.940,61.7285
14.950,64.2595
14.960,68.2242
14.970,65.9100
14.980,61.4888
14.990,64.5331
15.000,57.7049
15.010,65.2065
15.020,59.2073
15.030,65.0068
15.040,62.5397
15.050,69.4819
15.060,71.8658
15.070,72.1004
15.080,64.6783
15.090,69.6546
15.100,71.1400
15.110,68.5799
15.120,72.4798
15.130,74.7747
15.140,78.9353
15.150,71.8474
15.160,79.3792
15.170,77.2346
15.180,83.0572
15.190,77.6246
15.200,79.6293
15.210,82.8046
15.220,82.3001
15.230,83.5610
15.240,80.1725
15.250,91.0960
15.260,83.0557
15.270,84.3822
15.280,94.6323
15.290,96.2893
15.300,93.1109
15.310,90.5003
15.320,98.4528
15.330,94.5797
15.340,89.9531
15.350,100.3451
15.360,95.8715
15.370,98.5183
15.380,99.0005
15.390,94.0046
15.400,106.2004
15.410,101.8799
15.420,103.0989
15.430,107.6294
15.440,107.3295
15.450,111.0008
15.460,101.4123
15.470,111.3884
15.480,110.3242
15.490,106.4994
15.500,109.2255
15.510,106.7963
15.520,112.0944
15.530,117.2286
15.540,118.0475
15.550,117.9556
15.560,111.2717
15.570,120.9946
15.580,114.7097
15.590,121.7403
15.600,123.7425
15.610,121.3914
15.620,118.1191
15.630,127.3659
15.640,129.1717
15.650,122.8784
15.660,121.0604
15.670,122.8948
15.680,130.5860
15.690,125.8746
15.700,123.4735
15.710,131.7225
15.720,136.7905
15.730,128.4561
15.740,136.3329
15.750,135.3884
15.760,135.0965
15.770,132.9091
15.780,137.0825
15.790,133.4510
15.800,136.5450
15.810,142.9495
15.820,140.3836
15.830,141.6922
15.840,139.0788
15.850,148.8238
15.860,145.4000
15.870,147.6659
15.880,150.8054
15.890,151.4112
15.900,143.3421
15.910,147.2697
15.920,146.4503
15.930,154.9263
15.940,154.1066
15.950,150.7480
15.960,152.3887
15.970,149.0203
15.980,161.1691
15.990,159.7129
16.000,155.9498
16.010,158.9428
16.020,153.1055
16.030,158.5214
16.040,158.4606
16.050,154.3109
16.060,156.0808
16.070,154.0884
16.080,162.4692
16.090,155.6127
16.100,154.8373
16.110,159.8109
16.120,156.6570
16.130,163.5784
16.140,157.2616
16.150,160.5783
16.160,163.3172
16.170,157.5514
16.180,152.5156
16.190,154.7780
16.200,160.6273
16.210,161.3525
16.220,154.6804
16.230,156.7978
16.240,154.8197
16.250,159.7912
16.260,152.5790
16.270,154.7498
16.280,161.4742
16.290,154.2596
16.300,162.0011
16.310,157.3893
16.320,159.0707
16.330,160.4293
16.340,153.0907
16.350,163.2197
16.360,163.1717
16.370,155.3380
16.380,156.6425
16.390,161.0992
16.400,158.4205
16.410,152.8238
16.420,156.7967
16.430,154.6207
16.440,155.8891
16.450,155.6516
16.460,162.0938
16.470,159.0539
16.480,161.7112
16.490,152.5615
16.500,158.2641
16.510,153.4305
16.520,155.5586
16.530,152.7139
16.540,159.6294
16.550,154.1965
16.560,155.2513
16.570,158.4629
16.580,157.8621
16.590,164.0749
16.600,158.4046
16.610,162.0608
16.620,152.8257
16.630,152.1270
16.640,155.8542
16.650,162.4636
16.660,159.3803
16.670,159.8949
16.680,153.1706
16.690,154.3027
16.700,162.6127
16.710,162.5564
16.720,155.0549
16.730,155.2079
16.740,158.1617
16.750,160.9904
16.760,154.9293
16.770,162.3839
16.780,162.0968
16.790,154.4925
16.800,156.9311
16.810,160.6164
16.820,156.7022
16.830,163.2081
16.840,164.1708
16.850,152.2943
16.860,155.3982
16.870,157.5405
16.880,162.9070
16.890,156.7729
16.900,153.3925
16.910,157.8393
16.920,156.4603
16.930,156.1495
16.940,152.2775
16.950,161.2999
16.960,160.4367
16.970,161.9670
16.980,160.0079
16.990,155.9992
17.000,63.8195
17.010,66.4525
17.020,59.9752
17.030,56.9236
17.040,65.5783
17.050,63.8213
17.060,58.7707
17.070,59.6007
17.080,57.8276
17.090,63.5045
17.100,66.6090
17.110,57.0054
17.120,68.6948
17.130,60.4247
17.140,60.2657
17.150,64.4613
17.160,63.5486
17.170,60.0327
17.180,66.6213
17.190,65.6027
17.200,61.8810
17.210,69.2989
17.220,64.5802
17.230,61.9508
17.240,62.8943
17.250,68.5405
17.260,65.1911
17.270,62.8356
17.280,69.5214
17.290,71.0424
17.300,70.6080
17.310,72.3865
17.320,70.8317
17.330,62.2988
17.340,63.7609
17.350,65.9252
17.360,64.0130
17.370,70.3272
17.380,71.3044
17.390,66.7902
17.400,62.7111
17.410,63.7394
17.420,68.1780
17.430,70.5647
17.440,63.7052
17.450,71.9771
17.460,71.2906
17.470,73.0334
17.480,64.9123
17.490,69.5312
17.500,67.3468
17.510,63.2099
17.520,72.2177
17.530,73.4333
17.540,62.7574
17.550,73.0484
17.560,67.0060
17.570,66.0124
17.580,67.6353
17.590,72.0508
17.600,62.7827
17.610,61.9987
17.620,63.6807
17.630,66.4314
17.640,65.8540
17.650,71.4564
17.660,71.9005
17.670,65.7708
17.680,62.7993
17.690,62.9080
17.700,61.7255
17.710,69.0551
17.720,66.2167
17.730,69.7196
17.740,69.4298
17.750,67.9834
17.760,62.6361
17.770,70.7482
17.780,64.1067
17.790,64.2494
17.800,62.4213
17.810,62.1610
17.820,65.3817
17.830,68.4870
17.840,65.4529
17.850,65.1070
17.860,62.9634
17.870,65.9398
17.880,59.6559
17.890,60.1550
17.900,62.8610
17.910,57.4143
17.920,63.2023
17.930,63.3716
17.940,62.1030
17.950,60.4040
17.960,60.2287
17.970,58.1897
17.980,61.0642
17.990,65.6650
18.000,55.5724
18.010,65.2840
18.020,56.5856
18.030,56.5884
18.040,59.1347
18.050,64.6136
18.060,63.8807
18.070,54.2747
18.080,63.4930
18.090,57.4144
18.100,56.9860
18.110,63.5023
18.120,65.0562
18.130,58.0516
18.140,62.4420
18.150,54.0984
18.160,56.5129
18.170,59.5768
18.180,63.2384
18.190,59.9449
18.200,58.1765
18.210,58.4263
18.220,63.6458
18.230,58.7687
18.240,60.2930
18.250,61.0477
18.260,59.5074
18.270,59.0337
18.280,58.2218
18.290,59.9028
18.300,56.8652
18.310,59.2974
18.320,62.5322
18.330,56.6999
18.340,62.3905
18.350,56.0252
18.360,54.5328
18.370,56.0226
18.380,60.2265
18.390,64.3940
18.400,56.5229
18.410,62.5848
18.420,60.0891
18.430,61.2800
18.440,59.7623
18.450,61.5040
18.460,62.1886
18.470,64.5102
18.480,60.4644
18.490,58.7735
18.500,57.7869
18.510,61.6662
18.520,68.3797
18.530,58.0080
18.540,66.9700
18.550,58.3158
18.560,58.0710
18.570,65.6621
18.580,62.0244
18.590,62.3880
18.600,60.2401
18.610,67.3838
18.620,69.4655
18.630,64.8051
18.640,67.0098
18.650,66.7073
18.660,71.1231
18.670,70.7162
18.680,65.9906
18.690,68.2406
18.700,65.7458
18.710,66.7473
18.720,61.6999
18.730,72.3425
18.740,69.5592
18.750,71.6971
18.760,64.3417
18.770,65.2797
18.780,67.9376
18.790,65.5941
18.800,71.9998
18.810,66.6077
18.820,68.9636
18.830,71.0968
18.840,66.2911
18.850,68.8256
18.860,71.9510
18.870,72.0259
18.880,72.8347
18.890,64.7078
18.900,71.6020
18.910,63.4826
18.920,67.3545
18.930,67.6759
18.940,68.3002
18.950,72.4147
18.960,66.5565
18.970,74.1596
18.980,67.7245
18.990,62.7777
19.000,67.4778
19.010,63.5618
19.020,65.0471
19.030,65.0633
19.040,67.0848
19.050,68.9405
19.060,68.1530
19.070,65.4042
19.080,67.9850
19.090,64.1952
19.100,65.4195
19.110,61.4257
19.120,61.9578
19.130,65.9475
19.140,67.6062
19.150,69.8146
19.160,63.8666
19.170,68.5122
19.180,70.3714
19.190,67.1669
19.200,68.8719
19.210,60.9108
19.220,61.9567
19.230,64.0650
19.240,62.1582
19.250,66.5424
19.260,64.2386
19.270,69.8998
19.280,65.3758
19.290,67.4414
19.300,62.9606
19.310,64.0735
19.320,60.4697
19.330,57.0940
19.340,68.2331
19.350,64.5596
19.360,62.4305
19.370,62.3752
19.380,56.3013
19.390,58.2089
19.400,56.0700
19.410,65.5617
19.420,58.8835
19.430,62.3261
19.440,57.3406
19.450,63.5816
19.460,62.9774
19.470,64.5616
19.480,57.8041
19.490,61.5634
19.500,62.9769
19.510,57.4254
19.520,60.4703
19.530,59.5280
19.540,59.6685
19.550,59.4374
19.560,58.6867
19.570,57.0973
19.580,60.0576
19.590,61.3846
19.600,53.0710
19.610,64.0174
19.620,57.7112
19.630,54.3925
19.640,57.2982
19.650,54.2938
19.660,59.4162
19.670,62.2598
19.680,52.8486
19.690,62.4376
19.700,53.2962
19.710,55.6418
19.720,64.7718
19.730,60.0132
19.740,56.0628
19.750,63.8459
19.760,54.5909
19.770,63.5347
19.780,57.2549
19.790,60.4969
19.800,64.4343
19.810,59.3880
19.820,54.7078
19.830,58.8405
19.840,63.9692
19.850,63.4504
19.860,62.5300
19.870,61.0656
19.880,63.2437
19.890,62.6496
19.900,67.4856
19.910,60.2637
19.920,64.5764
19.930,60.3127
19.940,57.8290
19.950,68.6220
19.960,61.8188
19.970,60.6460
19.980,64.1161
19.990,61.8533
20.000,60.3838
20.010,67.2532
20.020,61.2891
20.030,62.6115
20.040,61.2777
20.050,66.0239
20.060,59.8839
20.070,63.0747
20.080,60.3369
20.090,69.0960
20.100,68.5040
20.110,68.8244
20.120,70.1716
20.130,66.4525
20.140,61.2330
20.150,62.3019
20.160,64.8371
20.170,66.7817
20.180,65.1179
20.190,70.9737
20.200,70.2708
20.210,71.0609
20.220,67.5272
20.230,66.1489
20.240,62.1273
20.250,65.0159
20.260,71.2663
20.270,63.5541
20.280,71.3061
20.290,74.4694
20.300,70.2341
20.310,66.9238
20.320,65.0812
20.330,74.5854
20.340,64.1876
20.350,69.1575
20.360,68.3284
20.370,64.6855
20.380,71.5720
20.390,73.5551
20.400,68.5834
20.410,64.0174
20.420,62.7601
20.430,68.9475
20.440,74.1161
20.450,62.6897
20.460,68.6940
20.470,64.3817
20.480,72.1501
20.490,67.7411
20.500,69.6989
20.510,68.4933
20.520,62.2894
20.530,72.1558
20.540,70.4968
20.550,68.1862
20.560,65.1857
20.570,68.0571
20.580,65.3500
20.590,63.7489
20.600,61.3855
20.610,63.6207
20.620,71.5423
20.630,65.6536
20.640,66.9224
20.650,65.8748
20.660,70.0635
20.670,64.2636
20.680,66.5527
20.690,62.5658
20.700,67.3026
20.710,62.5243
20.720,59.9765
20.730,67.9382
20.740,68.8182
20.750,58.3554
20.760,64.3076
20.770,60.4507
20.780,62.6069
20.790,57.4203
20.800,56.2178
20.810,66.2859
20.820,60.8525
20.830,65.5048
20.840,66.7400
20.850,65.3320
20.860,57.4856
20.870,58.7216
20.880,62.9213
20.890,61.0349
20.900,58.2916
20.910,58.5994
20.920,55.1334
20.930,58.8669
20.940,54.8492
20.950,61.2757
20.960,58.4607
20.970,61.3468
20.980,64.9299
20.990,57.7066
21.000,56.5641
21.010,63.1502
21.020,60.5759
21.030,63.0248
21.040,58.6901
21.050,61.9761
21.060,64.4654
21.070,57.3598
21.080,60.9781
21.090,54.9254
21.100,57.5118
21.110,57.4671
21.120,59.6802
21.130,53.9868
21.140,54.8819
21.150,57.1113
21.160,57.6599
21.170,62.7614
21.180,58.0504
21.190,56.3549
21.200,58.3503
21.210,60.4837
21.220,65.6357
21.230,63.8108
21.240,55.1914
21.250,65.2884
21.260,56.9820
21.270,58.6981
21.280,56.5538
21.290,62.1641
21.300,63.4631
21.310,55.8975
21.320,56.2297
21.330,56.8140
21.340,60.4031
21.350,68.2553
21.360,59.5992
21.370,66.5985
21.380,63.6427
21.390,66.2151
21.400,65.7647
21.410,67.0334
21.420,65.9733
21.430,68.8937
21.440,58.3946
21.450,68.1829
21.460,69.9399
21.470,68.1501
21.480,70.2984
21.490,59.3633
21.500,66.3994
21.510,69.9294
21.520,69.4841
21.530,63.3241
21.540,62.2962
21.550,65.1561
21.560,69.9896
21.570,71.4705
21.580,64.3774
21.590,67.0953
21.600,71.8642
21.610,62.3861
21.620,67.6553
21.630,70.5184
21.640,71.0253
21.650,63.5530
21.660,63.0096
21.670,64.8009
21.680,66.7815
21.690,64.1372
21.700,69.9779
21.710,70.5615
21.720,64.0665
21.730,69.5073
21.740,70.6817
21.750,69.7888
21.760,72.1022
21.770,64.7391
21.780,74.1260
21.790,74.2196
21.800,74.0938
21.810,64.4363
21.820,72.4084
21.830,68.5393
21.840,70.2123
21.850,73.5430
21.860,66.3357
21.870,73.0920
21.880,73.7753
21.890,68.3402
21.900,71.9479
21.910,69.9743
21.920,63.6778
21.930,70.8451
21.940,67.8961
21.950,69.0142
21.960,72.0755
21.970,62.0976
21.980,65.7905
21.990,61.8094
22.000,71.3592
22.010,60.6790
22.020,70.2887
22.030,67.9824
22.040,68.7888
22.050,63.1492
22.060,70.2421
22.070,65.7310
22.080,65.7548
22.090,63.9257
22.100,70.3917
22.110,65.5210
22.120,64.9052
22.130,63.6674
22.140,62.1370
22.150,59.5926
22.160,62.6838
22.170,68.5816
22.180,63.1970
22.190,57.9390
22.200,60.5330
22.210,59.5972
22.220,59.3923
22.230,60.9435
22.240,58.2218
22.250,66.6822
22.260,62.7749
22.270,66.9203
22.280,55.2375
22.290,67.1051
22.300,62.5670
22.310,64.5542
22.320,65.2588
22.330,65.9448
22.340,59.1496
22.350,55.9202
22.360,59.6247
22.370,56.9768
22.380,59.5561
22.390,60.0299
22.400,61.7507
22.410,63.1100
22.420,54.1048
22.430,57.0140
22.440,53.7055
22.450,58.6954
22.460,55.2131
22.470,57.3070
22.480,60.0144
22.490,57.4239
22.500,60.9636
22.510,55.9019
22.520,63.3833
22.530,59.3193
22.540,58.8567
22.550,54.7141
22.560,64.4983
22.570,64.8433
22.580,53.7713
22.590,54.2529
22.600,60.6289
22.610,54.1956
22.620,64.3821
22.630,63.8154
22.640,61.3504
22.650,64.1421
22.660,58.7058
22.670,59.9963
22.680,61.0777
22.690,59.4053
22.700,63.5385
22.710,60.1641
22.720,56.2728
22.730,59.3864
22.740,59.8566
22.750,58.8642
22.760,59.1096
22.770,58.6515
22.780,68.0972
22.790,62.4831
22.800,57.0563
22.810,68.7851
22.820,62.0381
22.830,65.5873
22.840,63.0423
22.850,67.7358
22.860,61.4290
22.870,61.1423
22.880,62.2961
22.890,63.1694
22.900,63.4458
22.910,62.7153
22.920,70.0474
22.930,69.6415
22.940,65.3065
22.950,65.3649
22.960,70.5790
22.970,71.7332
22.980,68.6820
22.990,68.7709
23.000,64.7975
23.010,67.9190
23.020,69.7623
23.030,67.5889
23.040,62.3382
23.050,70.2511
23.060,67.1336
23.070,62.6321
23.080,71.7220
23.090,67.2480
23.100,74.4945
23.110,74.5391
23.120,67.4000
23.130,72.5742
23.140,67.4972
23.150,68.1319
23.160,65.5928
23.170,70.6993
23.180,73.1419
23.190,67.3940
23.200,67.1145
23.210,68.4889
23.220,68.5455
23.230,70.8079
23.240,70.9176
23.250,70.6633
23.260,74.3025
23.270,65.3082
23.280,74.8672
23.290,71.5585
23.300,65.0282
23.310,65.4972
23.320,64.1066
23.330,68.3860
23.340,62.3463
23.350,66.6410
23.360,68.0421
23.370,71.3571
23.380,68.4083
23.390,65.4414
23.400,70.9109
23.410,71.3809
23.420,61.9960
23.430,72.2664
23.440,66.7701
23.450,68.3564
23.460,61.5085
23.470,68.9193
23.480,64.8863
23.490,68.2325
23.500,61.0078
23.510,63.1386
23.520,60.2994
23.530,63.8382
23.540,66.3475
23.550,68.6796
23.560,61.9089
23.570,65.1796
23.580,66.5573
23.590,65.2019
23.600,57.6760
23.610,59.0787
23.620,67.4211
23.630,62.6804
23.640,64.0113
23.650,61.0034
23.660,60.7962
23.670,57.2476
23.680,60.7058
23.690,64.6672
23.700,56.5321
23.710,67.5016
23.720,58.1341
23.730,56.6803
23.740,58.7333
23.750,57.3313
23.760,62.4544
23.770,61.6101
23.780,57.7957
23.790,63.2579
23.800,60.3099
23.810,54.9589
23.820,56.3448
23.830,58.6869
23.840,61.0320
23.850,59.9862
23.860,64.0690
23.870,63.1279
23.880,58.4591
23.890,61.6096
23.900,57.2102
23.910,54.1063
23.920,60.5454
23.930,57.9221
23.940,63.2576
23.950,58.5814
23.960,53.6121
23.970,56.6601
23.980,61.8554
23.990,59.5324
24.000,63.3173
24.010,55.2320
24.020,56.6956
24.030,60.1072
24.040,55.6169
24.050,60.9270
24.060,56.0958
24.070,63.3879
24.080,63.3119
24.090,60.5910
24.100,65.4545
24.110,62.9210
24.120,65.9613
24.130,59.0025
24.140,65.3250
24.150,58.9121
24.160,57.5300
24.170,58.1207
24.180,63.7223
24.190,66.4243
24.200,57.9594
24.210,59.8178
24.220,61.4011
24.230,67.1054
24.240,60.6777
24.250,65.5016
24.260,66.8780
24.270,69.5731
24.280,62.9183
24.290,67.0926
24.300,69.0610
24.310,69.8104
24.320,59.7095
24.330,64.5175
24.340,68.5310
24.350,66.7579
24.360,62.3685
24.370,67.2667
24.380,61.2781
24.390,67.9990
24.400,70.1178
24.410,70.2644
24.420,65.0275
24.430,68.8789
24.440,70.3667
24.450,69.2528
24.460,70.4116
24.470,72.4247
24.480,70.4671
24.490,72.8305
24.500,64.8800
24.510,70.8908
24.520,69.3119
24.530,72.7916
24.540,73.3368
24.550,68.4694
24.560,74.7727
24.570,66.0080
24.580,71.8587
24.590,68.4047
24.600,71.3118
24.610,70.0761
24.620,71.5172
24.630,70.7310
24.640,71.2878
24.650,70.1386
24.660,64.7408
24.670,68.7128
24.680,67.0448
24.690,73.2112
24.700,70.0981
24.710,70.8915
24.720,65.0645
24.730,71.8547
24.740,67.9956
24.750,70.4497
24.760,72.7474
24.770,64.0254
24.780,63.1969
24.790,66.6671
24.800,62.3637
24.810,63.3135
24.820,72.8336
24.830,71.9997
24.840,67.2545
24.850,61.5421
24.860,63.5998
24.870,64.1727
24.880,61.7714
24.890,64.9330
24.900,66.0831
24.910,71.5444
24.920,69.6878
24.930,62.1224
24.940,64.1664
24.950,62.5813
24.960,66.5348
24.970,67.1380
24.980,65.6410
24.990,66.3778
25.000,63.3306
25.010,63.6522
25.020,65.1253
25.030,61.8940
25.040,58.8129
25.050,62.5482
25.060,67.9528
25.070,64.9169
25.080,68.6684
25.090,58.0627
25.100,62.6160
25.110,57.4703
25.120,56.5546
25.130,67.3802
25.140,61.9323
25.150,63.9690
25.160,64.5316
25.170,64.8591
25.180,60.6705
25.190,64.6094
25.200,54.8967
25.210,65.2125
25.220,60.0146
25.230,56.5169
25.240,65.4838
25.250,61.1795
25.260,58.4469
25.270,55.0508
25.280,59.7635
25.290,61.4772
25.300,59.0941
25.310,62.3332
25.320,58.4251
25.330,65.7449
25.340,61.1884
25.350,59.2148
25.360,62.8208
25.370,65.6838
25.380,61.1336
25.390,63.7837
25.400,61.5933
25.410,63.3997
25.420,64.9297
25.430,61.6959
25.440,61.8760
25.450,62.3802
25.460,58.7314
25.470,65.2376
25.480,56.5384
25.490,56.4437
25.500,66.6112
25.510,59.8937
25.520,60.6650
25.530,66.9632
25.540,60.4655
25.550,55.4184
25.560,65.1967
25.570,60.2084
25.580,64.8340
25.590,63.1318
25.600,57.2108
25.610,64.5796
25.620,65.7606
25.630,57.4652
25.640,63.4218
25.650,66.1098
25.660,59.4081
25.670,69.4271
25.680,67.9855
25.690,63.7949
25.700,58.2810
25.710,58.9044
25.720,67.0275
25.730,67.1118
25.740,64.5619
25.750,59.3736
25.760,65.1085
25.770,67.4040
25.780,60.6722
25.790,60.1737
25.800,68.4663
25.810,63.3074
25.820,64.3966
25.830,69.4094
25.840,72.4265
25.850,69.3327
25.860,72.5128
25.870,69.7460
25.880,62.5427
25.890,72.4016
25.900,64.6555
25.910,67.5153
25.920,65.7199
25.930,65.3145
25.940,67.5044
25.950,63.6508
25.960,66.6717
25.970,71.8626
25.980,71.2661
25.990,66.6201
26.000,64.7259
26.010,66.3676
26.020,72.8162
26.030,69.4600
26.040,65.8301
26.050,70.8346
26.060,74.7212
26.070,69.7663
26.080,71.8956
26.090,73.2042
26.100,70.5599
26.110,72.9825
26.120,71.7028
26.130,72.8981
26.140,68.6362
26.150,72.7144
26.160,65.1372
26.170,66.5171
26.180,68.0515
26.190,72.0843
26.200,73.4207
26.210,64.8306
26.220,65.9201
26.230,63.5478
26.240,63.8953
26.250,62.2723
26.260,63.0666
26.270,63.3576
26.280,63.6955
26.290,68.4346
26.300,68.7599
26.310,64.5383
26.320,68.9726
26.330,62.5687
26.340,63.6206
26.350,65.1485
26.360,71.0292
26.370,68.6405
26.380,63.5894
26.390,63.9506
26.400,63.1206
26.410,59.0784
26.420,64.2724
26.430,59.2401
26.440,60.0082
26.450,65.5883
26.460,62.8144
26.470,59.9738
26.480,66.3796
26.490,61.4236
26.500,65.4109
26.510,66.9397
26.520,62.3997
26.530,61.6189
26.540,59.2844
26.550,63.4202
26.560,64.7177
26.570,59.9576
26.580,63.0018
26.590,65.6664
26.600,63.7159
26.610,65.8996
26.620,63.5829
26.630,63.8910
26.640,60.6226
26.650,60.9963
26.660,57.1600
26.670,55.6102
26.680,61.0617
26.690,65.5497
26.700,61.3216
26.710,54.9334
26.720,56.4561
26.730,56.9495
26.740,65.9648
26.750,54.7059
26.760,59.3114
26.770,59.1038
26.780,54.3725
26.790,63.2512
26.800,64.3000
26.810,54.9102
26.820,62.3454
26.830,63.0702
26.840,60.9927
26.850,56.9943
26.860,62.7015
26.870,64.4572
26.880,64.0173
26.890,58.3297
26.900,64.0631
26.910,63.4418
26.920,58.6000
26.930,55.4960
26.940,57.2105
26.950,58.1937
26.960,55.5861
26.970,59.9566
26.980,61.2571
26.990,64.2917
27.000,63.6653
27.010,59.4994
27.020,65.2563
27.030,59.2506
27.040,60.2854
27.050,58.9708
27.060,64.6168
27.070,64.2368
27.080,68.7665
27.090,65.6604
27.100,60.4252
27.110,65.5012
27.120,59.8022
27.130,67.6786
27.140,61.6215
27.150,70.6516
27.160,62.9728
27.170,69.8622
27.180,68.8178
27.190,70.4033
27.200,67.5997
27.210,62.7101
27.220,64.0871
27.230,70.1029
27.240,61.7561
27.250,68.7392
27.260,67.4080
27.270,65.8253
27.280,68.5346
27.290,65.3887
27.300,70.6191
27.310,73.6737
27.320,64.3953
27.330,66.0650
27.340,63.2174
27.350,70.5511
27.360,66.3479
27.370,70.5845
27.380,73.3041
27.390,70.1358
27.400,72.1803
27.410,70.7434
27.420,72.2473
27.430,73.3272
27.440,70.7362
27.450,63.7796
27.460,74.5289
27.470,65.8717
27.480,71.6716
27.490,72.9079
27.500,64.9339
27.510,71.1172
27.520,74.2895
27.530,71.7629
27.540,65.4492
27.550,74.6016
27.560,71.9375
27.570,65.5343
27.580,70.5957
27.590,67.8312
27.600,73.6756
27.610,74.6433
27.620,66.2241
27.630,72.4051
27.640,68.9784
27.650,73.3346
27.660,70.0569
27.670,73.4149
27.680,68.0323
27.690,72.1803
27.700,65.9744
27.710,64.5384
27.720,62.2138
27.730,66.0136
27.740,72.1043
27.750,66.4219
27.760,64.4805
27.770,67.8250
27.780,66.8326
27.790,70.1871
27.800,61.5582
27.810,68.8598
27.820,66.4015
27.830,66.0452
27.840,59.7517
27.850,61.7635
27.860,64.7160
27.870,61.1617
27.880,64.8227
27.890,68.4240
27.900,58.3098
27.910,63.5246
27.920,69.3902
27.930,68.2106
27.940,57.5361
27.950,58.5156
27.960,64.0816
27.970,67.2737
27.980,61.1655
27.990,66.1046
28.000,62.9515
28.010,56.8099
28.020,58.1785
28.030,56.5506
28.040,65.6798
28.050,60.6974
28.060,66.6405
28.070,66.3125
28.080,56.2578
28.090,65.3444
28.100,65.2114
28.110,57.2149
28.120,66.4193
28.130,60.8564
28.140,56.0397
28.150,61.5995
28.160,59.5258
28.170,63.3059
28.180,65.9588
28.190,59.6665
28.200,65.2708
28.210,54.1319
28.220,58.0527
28.230,62.7814
28.240,55.2766
28.250,55.8630
28.260,64.8461
28.270,64.7484
28.280,63.1374
28.290,60.0442
28.300,62.0816
28.310,62.1150
28.320,58.8697
28.330,59.6255
28.340,66.2447
28.350,56.2446
28.360,66.2522
28.370,61.6179
28.380,61.3193
28.390,65.6573
28.400,65.2433
28.410,64.8141
28.420,59.7696
28.430,64.1356
28.440,64.5498
28.450,64.2844
28.460,68.0945
28.470,68.0011
28.480,57.7373
28.490,58.6082
28.500,63.7042
28.510,58.4532
28.520,59.2148
28.530,60.3503
28.540,68.8178
28.550,70.0669
28.560,63.0380
28.570,60.8500
28.580,65.3813
28.590,64.0148
28.600,62.2630
28.610,62.2647
28.620,61.8439
28.630,65.1327
28.640,62.5776
28.650,69.8127
28.660,61.9520
28.670,63.5239
28.680,62.8788
28.690,69.9272
28.700,68.2782
28.710,64.2841
28.720,69.6771
28.730,70.7921
28.740,69.9555
28.750,68.7958
28.760,65.6558
28.770,73.9762
28.780,69.7700
28.790,69.8050
28.800,71.0243
28.810,63.3793
28.820,64.2485
28.830,67.1419
28.840,71.9820
28.850,68.6786
28.860,68.0990
28.870,69.1880
28.880,66.3474
28.890,74.4876
28.900,64.7421
28.910,67.0039
28.920,72.6443
28.930,69.0065
28.940,64.4429
28.950,70.4069
28.960,70.2930
28.970,70.7473
28.980,74.3784
28.990,70.2618
29.000,74.4629
29.010,70.8077
29.020,72.3219
29.030,73.8130
29.040,71.4931
29.050,69.1720
29.060,73.4245
29.070,73.2485
29.080,72.2162
29.090,71.2596
29.100,65.5510
29.110,66.4233
29.120,68.9421
29.130,66.6001
29.140,71.3723
29.150,62.0706
29.160,61.6728
29.170,71.5631
29.180,71.7170
29.190,66.5573
29.200,61.4640
29.210,63.0012
29.220,72.0480
29.230,66.2928
29.240,71.7758
29.250,64.5930
29.260,61.9746
29.270,70.6096
29.280,65.6446
29.290,59.3598
29.300,61.7605
29.310,66.9928
29.320,66.5696
29.330,60.0190
29.340,58.1741
29.350,61.4599
29.360,62.1798
29.370,65.4445
29.380,62.9476
29.390,66.3106
29.400,68.4534
29.410,67.6225
29.420,61.3588
29.430,57.4058
29.440,67.1368
29.450,57.0796
29.460,63.4552
29.470,56.5048
29.480,57.9811
29.490,60.4739
29.500,64.4895
29.510,59.6253
29.520,64.4576
29.530,55.3833
29.540,55.3668
29.550,59.2867
29.560,59.0438
29.570,58.3707
29.580,60.1866
29.590,60.8028
29.600,59.8033
29.610,57.0703
29.620,56.2412
29.630,58.6848
29.640,60.7511
29.650,58.4778
29.660,57.5009
29.670,57.9142
29.680,59.1762
29.690,55.8359
29.700,65.5485
29.710,64.3292
29.720,55.6932
29.730,60.6556
29.740,60.6003
29.750,64.1825
29.760,55.5214
29.770,65.4250
29.780,66.3262
29.790,60.5092
29.800,58.4208
29.810,56.4472
29.820,58.0504
29.830,61.3595
29.840,68.0032
29.850,58.6066
29.860,60.9655
29.870,66.2451
29.880,67.6407
29.890,64.6552
29.900,62.9619
29.910,61.8798
29.920,60.6599
29.930,67.3438
29.940,64.2476
29.950,58.4593
29.960,61.1819
29.970,63.5581
29.980,63.6539
29.990,68.7030
30.000,70.2073
30.010,65.8828
30.020,61.1697
30.030,68.4898
30.040,67.1352
30.050,73.4160
30.060,66.8188
30.070,69.0483
30.080,70.5713
30.090,79.0468
30.100,74.7725
30.110,76.9818
30.120,73.8964
30.130,83.6021
30.140,73.6679
30.150,85.7296
30.160,76.8890
30.170,87.4887
30.180,84.8442
30.190,80.4883
30.200,86.3453
30.210,83.3157
30.220,81.7018
30.230,84.4163
30.240,86.3280
30.250,86.6760
30.260,91.9460
30.270,95.4412
30.280,89.3131
30.290,96.4824
30.300,99.1803
30.310,99.3120
30.320,97.6753
30.330,99.3461
30.340,97.2462
30.350,103.8221
30.360,96.6598
30.370,98.4703
30.380,98.8489
30.390,99.6638
30.400,104.1888
30.410,109.9190
30.420,104.8727
30.430,107.5594
30.440,107.5291
30.450,110.6531
30.460,116.3042
30.470,111.7227
30.480,115.8079
30.490,112.8308
30.500,112.2472
30.510,115.5490
30.520,119.6028
30.530,116.1608
30.540,116.5607
30.550,115.5722
30.560,120.7204
30.570,117.7871
30.580,123.1592
30.590,118.2658
30.600,120.1906
30.610,120.8122
30.620,131.2987
30.630,129.9332
30.640,127.2476
30.650,131.3639
30.660,135.3823
30.670,126.4253
30.680,136.4814
30.690,127.3107
30.700,133.9710
30.710,137.6773
30.720,135.2204
30.730,137.1950
30.740,135.8253
30.750,134.3689
30.760,137.6691
30.770,139.7511
30.780,139.4975
30.790,145.6328
30.800,148.9168
30.810,146.2237
30.820,143.0046
30.830,142.2039
30.840,148.8104
30.850,143.2254
30.860,145.9882
30.870,144.8036
30.880,147.9748
30.890,153.0631
30.900,154.5372
30.910,148.9610
30.920,155.2617
30.930,151.0878
30.940,160.3268
30.950,158.5187
30.960,162.9314
30.970,156.6251
30.980,161.5312
30.990,165.7365
31.000,162.0463
31.010,162.8095
31.020,162.7414
31.030,160.0467
31.040,165.9055
31.050,160.8198
31.060,169.0200
31.070,163.7050
31.080,166.9316
31.090,157.4902
31.100,164.2540
31.110,163.8510
31.120,163.5961
31.130,165.5797
31.140,167.7028
31.150,168.3627
31.160,159.4437
31.170,163.7862
31.180,166.3592
31.190,164.9667
31.200,165.9341
31.210,163.0665
31.220,157.6621
31.230,165.6570
31.240,163.0092
31.250,160.9783
31.260,164.8348
31.270,168.3747
31.280,158.9048
31.290,158.1199
31.300,160.6030
31.310,161.4621
31.320,168.3766
31.330,165.9569
31.340,167.6322
31.350,158.9411
31.360,157.7001
31.370,167.6165
31.380,162.1224
31.390,166.1946
31.400,158.3308
31.410,166.4055
31.420,163.5873
31.430,157.7675
31.440,164.4766
31.450,161.1234
31.460,166.1387
31.470,164.7451
31.480,165.1482
31.490,159.3441
31.500,162.5622
31.510,163.3822
31.520,157.8108
31.530,167.1928
31.540,161.5224
31.550,168.1777
31.560,164.9485
31.570,162.6977
31.580,159.8312
31.590,164.1592
31.600,163.3913
31.610,162.3730
31.620,167.2152
31.630,165.6212
31.640,162.6325
31.650,168.6601
31.660,159.0994
31.670,164.4790
31.680,169.2950
31.690,164.5120
31.700,163.2874
31.710,157.8223
31.720,164.7458
31.730,166.4943
31.740,165.7074
31.750,167.8002
31.760,165.9759
31.770,159.8149
31.780,162.8801
31.790,167.3636
31.800,164.9597
31.810,159.3942
31.820,163.8696
31.830,160.9997
31.840,164.9501
31.850,162.3327
31.860,168.3316
31.870,160.3349
31.880,164.8036
31.890,165.3232
31.900,159.9054
31.910,162.7452
31.920,163.3518
31.930,167.5799
31.940,161.2510
31.950,163.0641
31.960,165.2974
31.970,168.0345
31.980,159.2221
31.990,161.2770
32.000,71.6138
32.010,69.7330
32.020,73.2135
32.030,72.1006
32.040,73.2468
32.050,66.7992
32.060,62.3520
32.070,66.7417
32.080,68.9217
32.090,62.9583
32.100,67.1849
32.110,65.2508
32.120,65.9794
32.130,67.3176
32.140,65.0234
32.150,70.7053
32.160,69.7288
32.170,64.6649
32.180,58.7081
32.190,69.7287
32.200,60.5869
32.210,59.9758
32.220,62.5577
32.230,65.6078
32.240,62.3843
32.250,68.3194
32.260,60.3788
32.270,59.7777
32.280,66.3015
32.290,58.4917
32.300,68.3498
32.310,58.5168
32.320,64.2820
32.330,60.1508
32.340,59.8598
32.350,56.4421
32.360,62.5020
32.370,63.8819
32.380,57.6923
32.390,65.6561
32.400,66.4050
32.410,62.8924
32.420,57.0395
32.430,58.3974
32.440,58.0127
32.450,57.5347
32.460,61.9781
32.470,61.1221
32.480,62.6251
32.490,63.2898
32.500,57.7726
32.510,58.0210
32.520,55.3101
32.530,66.1183
32.540,56.4251
32.550,56.3021
32.560,55.8237
32.570,65.2481
32.580,59.9362
32.590,64.4850
32.600,58.3153
32.610,60.7306
32.620,65.2595
32.630,63.9741
32.640,63.2240
32.650,59.0172
32.660,61.4080
32.670,60.8149
32.680,60.4546
32.690,57.8555
32.700,66.5236
32.710,65.2321
32.720,61.1706
32.730,68.6647
32.740,65.6272
32.750,59.2682
32.760,66.5954
32.770,63.2509
32.780,63.0076
32.790,67.9261
32.800,70.1480
32.810,67.3122
32.820,70.1902
32.830,59.6764
32.840,68.7354
32.850,66.0528
32.860,67.7350
32.870,69.4734
32.880,64.8354
32.890,67.3152
32.900,69.6346
32.910,68.8862
32.920,64.1498
32.930,70.9157
32.940,64.7146
32.950,72.3009
32.960,70.7545
32.970,62.1803
32.980,70.6092
32.990,73.4038
33.000,73.1308
33.010,70.0480
33.020,65.4556
33.030,74.0158
33.040,71.8348
33.050,63.3684
33.060,73.4554
33.070,74.5554
33.080,72.6631
33.090,75.3836
33.100,75.1010
33.110,71.1691
33.120,67.1369
33.130,73.6900
33.140,67.3622
33.150,74.1912
33.160,67.1504
33.170,75.4183
33.180,66.2577
33.190,72.2787
33.200,71.4313
33.210,75.4050
33.220,70.9904
33.230,73.2475
33.240,69.5299
33.250,70.1578
33.260,72.3221
33.270,74.9677
33.280,66.4480
33.290,69.6978
33.300,67.3520
33.310,66.8987
33.320,72.9524
33.330,69.7219
33.340,65.9731
33.350,66.6656
33.360,70.3533
33.370,64.4748
33.380,66.2750
33.390,67.5572
33.400,63.0292
33.410,64.2501
33.420,70.7769
33.430,64.6913
33.440,74.4430
33.450,64.4672
33.460,69.6121
33.470,72.1102
33.480,72.9130
33.490,67.5555
33.500,71.4326
33.510,66.5261
33.520,61.5817
33.530,61.1892
33.540,70.0833
33.550,63.7042
33.560,71.7996
33.570,64.1655
33.580,61.7292
33.590,62.4715
33.600,64.7347
33.610,65.0654
33.620,58.7195
33.630,63.1396
33.640,62.4336
33.650,59.8890
33.660,64.1580
33.670,60.0625
33.680,66.0030
33.690,61.2833
33.700,58.5794
33.710,62.1246
33.720,64.8581
33.730,62.7931
33.740,65.5150
33.750,60.6291
33.760,61.2897
33.770,65.7554
33.780,64.8210
33.790,63.6113
33.800,63.5209
33.810,61.6720
33.820,66.6685
33.830,57.4664
33.840,66.7957
33.850,59.5190
33.860,65.3915
33.870,59.7854
33.880,58.3358
33.890,56.2096
33.900,61.9554
33.910,64.5623
33.920,61.4047
33.930,61.0640
33.940,63.7242
33.950,59.3348
33.960,65.2297
33.970,66.9008
33.980,55.7562
33.990,57.5000
34.000,61.6652
34.010,61.9536
34.020,66.1394
34.030,58.8722
34.040,67.0490
34.050,63.1784
34.060,55.7388
34.070,62.1027
34.080,61.3665
34.090,58.6705
34.100,58.9545
34.110,64.1976
34.120,63.2540
34.130,67.3154
34.140,63.6808
34.150,62.3904
34.160,67.2159
34.170,58.7980
34.180,66.6230
34.190,66.5882
34.200,69.7806
34.210,68.2804
34.220,68.4360
34.230,69.5553
34.240,60.0448
34.250,63.1635
34.260,68.4211
34.270,69.8430
34.280,63.3840
34.290,60.4060
34.300,72.1649
34.310,60.3673
34.320,67.4130
34.330,72.7287
34.340,69.7126
34.350,61.1865
34.360,71.8680
34.370,71.4122
34.380,66.9509
34.390,66.9317
34.400,69.3623
34.410,71.5898
34.420,67.4531
34.430,72.2205
34.440,67.8298
34.450,68.2657
34.460,65.9625
34.470,72.7728
34.480,66.5340
34.490,70.8394
34.500,71.5578
34.510,64.5258
34.520,73.9521
34.530,69.8609
34.540,72.3631
34.550,72.8586
34.560,73.8506
34.570,65.9381
34.580,74.8359
34.590,74.7653
34.600,73.9770
34.610,76.4385
34.620,71.2900
34.630,69.7124
34.640,64.9724
34.650,65.3541
34.660,70.5868
34.670,72.5733
34.680,73.9256
34.690,68.3131
34.700,68.2999
34.710,69.0037
34.720,65.9513
34.730,66.5224
34.740,65.3117
34.750,69.3291
34.760,73.1910
34.770,75.5693
34.780,68.5752
34.790,64.4463
34.800,75.2695
34.810,72.5018
34.820,70.4384
34.830,69.5135
34.840,64.6904
34.850,71.1555
34.860,64.4716
34.870,66.8880
34.880,70.0040
34.890,70.0086
34.900,68.3103
34.910,73.5347
34.920,69.9185
34.930,71.3932
34.940,68.5994
34.950,64.4317
34.960,62.1069
34.970,68.6394
34.980,61.0544
34.990,64.2312
35.000,67.8626
35.010,67.9383
35.020,63.7273
35.030,68.1492
35.040,61.6974
35.050,59.5526
35.060,66.4732
35.070,69.4316
35.080,65.3689
35.090,58.0937
35.100,58.5728
35.110,64.4767
35.120,63.3985
35.130,68.9053
35.140,57.3464
35.150,62.2344
35.160,61.9316
35.170,66.6466
35.180,60.1744
35.190,64.4505
35.200,64.6606
35.210,65.0062
35.220,64.6549
35.230,64.8668
35.240,60.2130
35.250,57.2347
35.260,58.2642
35.270,56.4884
35.280,62.7463
35.290,59.9406
35.300,65.7393
35.310,56.2887
35.320,55.4233
35.330,60.6503
35.340,65.4112
35.350,56.5205
35.360,60.1167
35.370,56.2560
35.380,63.7368
35.390,63.0224
35.400,64.2933
35.410,65.6532
35.420,64.8668
35.430,66.9735
35.440,62.0559
35.450,66.6029
35.460,59.6512
35.470,61.9302
35.480,59.9335
35.490,56.2092
35.500,67.9548
35.510,59.5015
35.520,68.2932
35.530,59.3290
35.540,62.2517
35.550,67.3614
35.560,62.9398
35.570,65.0512
35.580,60.6107
35.590,58.3854
35.600,64.4254
35.610,66.0002
35.620,65.6280
35.630,66.5955
35.640,67.6002
35.650,61.4366
35.660,63.8177
35.670,66.9022
35.680,63.9600
35.690,68.9608
35.700,67.2607
35.710,60.8373
35.720,67.2072
35.730,63.9876
35.740,62.3229
35.750,63.5851
35.760,65.3007
35.770,70.4957
35.780,67.6163
35.790,69.2558
35.800,69.5896
35.810,63.2351
35.820,68.3749
35.830,67.3319
35.840,71.4970
35.850,70.2924
35.860,64.7626
35.870,66.7638
35.880,64.1217
35.890,63.4965
35.900,71.0809
35.910,64.7310
35.920,68.5677
35.930,70.2046
35.940,68.2670
35.950,71.6753
35.960,72.5347
35.970,72.3299
35.980,64.8329
35.990,70.2370
36.000,65.2042
36.010,75.7273
36.020,65.6211
36.030,75.6518
36.040,64.9848
36.050,67.3456
36.060,74.9590
36.070,75.5018
36.080,74.6500
36.090,67.5561
36.100,71.7022
36.110,73.6358
36.120,68.4293
36.130,70.0271
36.140,75.6019
36.150,68.1784
36.160,65.6140
36.170,67.7165
36.180,69.8806
36.190,71.9008
36.200,65.6134
36.210,69.8533
36.220,72.6461
36.230,71.5616
36.240,64.4892
36.250,68.4315
36.260,63.6401
36.270,64.1845
36.280,70.8711
36.290,70.2812
36.300,67.8493
36.310,69.3836
36.320,68.6716
36.330,64.4717
36.340,68.9072
36.350,68.2765
36.360,64.3885
36.370,64.6053
36.380,66.2625
36.390,66.2880
36.400,71.5352
36.410,68.6499
36.420,71.3113
36.430,65.8586
36.440,64.4766
36.450,68.0636
36.460,70.2875
36.470,63.7105
36.480,69.9615
36.490,70.8327
36.500,62.0766
36.510,66.8050
36.520,58.7980
36.530,64.9875
36.540,69.3429
36.550,58.2612
36.560,65.7068
36.570,62.9543
36.580,60.9471
36.590,58.1126
36.600,58.9794
36.610,68.4316
36.620,63.7901
36.630,67.6029
36.640,60.0421
36.650,56.8161
36.660,63.7900
36.670,57.3202
36.680,56.6367
36.690,59.6123
36.700,64.6920
36.710,63.9482
36.720,57.2068
36.730,62.8828
36.740,59.2718
36.750,61.0879
36.760,63.2699
36.770,58.2159
36.780,59.5420
36.790,60.9639
36.800,65.0766
36.810,58.1849
36.820,59.2525
36.830,55.3768
36.840,59.1574
36.850,56.4525
36.860,62.2869
36.870,64.9853
36.880,64.7686
36.890,67.1513
36.900,57.0709
36.910,60.8570
36.920,62.8654
36.930,61.7014
36.940,67.3968
36.950,65.9530
36.960,63.1005
36.970,68.7112
36.980,66.4808
36.990,59.6984
37.000,64.4212
37.010,66.5535
37.020,66.9693
37.030,65.6011
37.040,61.4635
37.050,60.0094
37.060,69.9463
37.070,61.1915
37.080,60.6252
37.090,66.5614
37.100,71.3910
37.110,65.7520
37.120,67.8703
37.130,70.4292
37.140,61.0059
37.150,69.0307
37.160,65.3243
37.170,71.8308
37.180,69.1441
37.190,66.6869
37.200,66.3498
37.210,66.2396
37.220,68.0689
37.230,65.9715
37.240,65.5080
37.250,70.6354
37.260,69.1227
37.270,72.7773
37.280,73.5365
37.290,68.0261
37.300,73.6953
37.310,71.6124
37.320,69.3321
37.330,67.7812
37.340,68.9866
37.350,73.9328
37.360,72.1485
37.370,73.2817
37.380,75.9797
37.390,67.3198
37.400,71.7704
37.410,71.4649
37.420,74.9729
37.430,66.7791
37.440,73.8186
37.450,67.6896
37.460,76.8916
37.470,71.4480
37.480,71.5265
37.490,68.1892
37.500,70.4231
37.510,65.9254
37.520,70.3048
37.530,71.9851
37.540,75.2969
37.550,65.0845
37.560,71.9400
37.570,75.5943
37.580,69.3030
37.590,73.8282
37.600,69.5927
37.610,76.3075
37.620,69.5643
37.630,73.2759
37.640,69.7136
37.650,69.3000
37.660,71.0632
37.670,72.3007
37.680,70.6364
37.690,67.3696
37.700,67.3600
37.710,63.3305
37.720,71.3144
37.730,69.2503
37.740,67.3036
37.750,65.2777
37.760,69.6937
37.770,71.3437
37.780,62.9643
37.790,67.1467
37.800,65.7882
37.810,65.7850
37.820,63.2722
37.830,63.4912
37.840,64.9587
37.850,72.1756
37.860,72.2796
37.870,70.4095
37.880,60.0923
37.890,60.1440
37.900,66.7971
37.910,59.9059
37.920,62.2002
37.930,67.4440
37.940,66.3262
37.950,68.2074
37.960,63.6131
37.970,62.0359
37.980,65.5359
37.990,60.6287
38.000,58.2460
38.010,68.8191
38.020,63.0106
38.030,65.8888
38.040,66.9510
38.050,59.3732
38.060,63.7379
38.070,59.5203
38.080,68.3684
38.090,60.4311
38.100,62.2109
38.110,64.1495
38.120,63.9075
38.130,56.5262
38.140,59.3454
38.150,64.0355
38.160,64.8583
38.170,67.6099
38.180,63.6101
38.190,63.5702
38.200,64.2064
38.210,63.4837
38.220,66.9844
38.230,58.7500
38.240,60.3187
38.250,63.4491
38.260,66.1560
38.270,66.1032
38.280,58.1340
38.290,65.0073
38.300,67.4997
38.310,61.4042
38.320,56.4466
38.330,65.3294
38.340,67.6034
38.350,65.5678
38.360,66.2834
38.370,63.3183
38.380,63.1161
38.390,57.6236
38.400,59.4813
38.410,58.9193
38.420,63.5045
38.430,68.9082
38.440,67.0094
38.450,68.8958
38.460,65.9887
38.470,68.0376
38.480,67.9928
38.490,68.0532
38.500,63.8613
38.510,68.0056
38.520,62.6810
38.530,64.2512
38.540,66.7173
38.550,62.4380
38.560,71.3142
38.570,71.9200
38.580,63.9034
38.590,70.9478
38.600,65.0886
38.610,69.7687
38.620,72.2871
38.630,67.2039
38.640,62.5737
38.650,67.8796
38.660,74.1806
38.670,65.7448
38.680,64.4614
38.690,72.2604
38.700,67.0695
38.710,73.7039
38.720,74.4300
38.730,74.6918
38.740,69.3050
38.750,64.2900
38.760,68.5703
38.770,70.9693
38.780,72.3952
38.790,72.0328
38.800,69.5277
38.810,74.6229
38.820,75.2957
38.830,67.0130
38.840,69.0390
38.850,73.6213
38.860,70.9166
38.870,67.4224
38.880,65.6200
38.890,73.5829
38.900,68.3711
38.910,68.0317
38.920,67.7004
38.930,67.1587
38.940,67.8025
38.950,75.6786
38.960,72.7405
38.970,71.6588
38.980,70.1523
38.990,74.7547
39.000,71.8257
39.010,72.0326
39.020,73.6185
39.030,72.7503
39.040,76.7449
39.050,71.6841
39.060,68.5565
39.070,64.6547
39.080,71.6735
39.090,65.4468
39.100,75.2988
39.110,75.9735
39.120,69.2434
39.130,66.6487
39.140,71.9679
39.150,73.1289
39.160,71.2016
39.170,66.8421
39.180,71.4207
39.190,67.1315
39.200,66.9419
39.210,65.0533
39.220,62.4825
39.230,68.1732
39.240,68.3002
39.250,65.6199
39.260,66.8439
39.270,70.4130
39.280,70.7925
39.290,64.2585
39.300,64.0910
39.310,68.7219
39.320,70.0063
39.330,60.4320
39.340,59.6524
39.350,60.2709
39.360,67.0289
39.370,69.3348
39.380,65.5508
39.390,58.8834
39.400,63.8435
39.410,67.3396
39.420,60.3788
39.430,59.8930
39.440,65.7325
39.450,64.9327
39.460,65.9761
39.470,68.0382
39.480,67.7206
39.490,67.8360
39.500,61.1406
39.510,63.5011
39.520,61.7198
39.530,58.4738
39.540,59.4444
39.550,60.6688
39.560,60.7630
39.570,58.8876
39.580,58.8796
39.590,67.7153
39.600,66.0381
39.610,56.2174
39.620,67.7011
39.630,55.9508
39.640,64.8539
39.650,55.9090
39.660,60.4107
39.670,63.8723
39.680,64.6043
39.690,55.9973
39.700,66.3092
39.710,56.0796
39.720,61.9497
39.730,64.0121
39.740,59.5723
39.750,64.1251
39.760,65.6505
39.770,59.7629
39.780,58.9615
39.790,66.7412
39.800,57.4056
39.810,68.3682
39.820,60.6171
39.830,65.8429
39.840,66.9982
39.850,67.1359
39.860,65.6646
39.870,65.3450
39.880,62.3758
39.890,62.5680
39.900,63.0523
39.910,62.7870
39.920,66.9940
39.930,67.7047
39.940,71.3082
39.950,60.9630
39.960,67.7965
39.970,60.4694
39.980,62.4654
39.990,68.8049
40.000,68.6046
40.010,61.6683
40.020,69.2772
40.030,67.3516
40.040,66.3995
40.050,66.2766
40.060,64.7884
40.070,68.5566
40.080,70.7201
40.090,72.3749
40.100,65.7662
40.110,69.2679
40.120,74.2081
40.130,73.1833
40.140,67.5555
40.150,67.3311
40.160,67.0885
40.170,66.3963
40.180,75.3905
40.190,73.2383
40.200,68.6409
40.210,75.9873
40.220,71.4900
40.230,66.6408
40.240,68.8219
40.250,68.2125
40.260,70.4194
40.270,74.1556
40.280,65.6940
40.290,66.5458
40.300,73.8549
40.310,67.7013
40.320,73.8112
40.330,74.8075
40.340,71.4877
40.350,72.5473
40.360,68.9853
40.370,72.0678
40.380,68.0491
40.390,67.7347
40.400,76.4764
40.410,68.4486
40.420,75.1791
40.430,72.4644
40.440,65.6942
40.450,73.3218
40.460,76.5151
40.470,69.0938
40.480,75.4776
40.490,70.6449
40.500,71.7985
40.510,75.1495
40.520,68.8304
40.530,66.9156
40.540,73.8301
40.550,66.9551
40.560,74.3677
40.570,69.9146
40.580,64.2161
40.590,63.5684
40.600,65.0664
40.610,62.9607
40.620,71.3979
40.630,69.3831
40.640,71.8605
40.650,68.7300
40.660,67.9293
40.670,62.2500
40.680,65.3527
40.690,63.7192
40.700,68.4522
40.710,63.0523
40.720,66.6343
40.730,62.6741
40.740,71.2109
40.750,64.0969
40.760,64.6838
40.770,65.9428
40.780,70.8162
40.790,65.3827
40.800,70.4517
40.810,62.3218
40.820,62.7638
40.830,66.7793
40.840,70.2518
40.850,66.5990
40.860,62.9785
40.870,61.4265
40.880,69.3865
40.890,59.0139
40.900,57.3134
40.910,68.9005
40.920,61.3706
40.930,63.3975
40.940,65.8620
40.950,57.0692
40.960,67.1297
40.970,66.9236
40.980,63.7656
40.990,58.6189
41.000,62.9643
41.010,60.9175
41.020,64.1274
41.030,65.4623
41.040,64.7750
41.050,64.7108
41.060,67.6092
41.070,64.2981
41.080,60.2103
41.090,60.5091
41.100,56.8707
41.110,60.1287
41.120,56.8776
41.130,67.2757
41.140,65.4627
41.150,58.1073
41.160,63.9243
41.170,58.6328
41.180,63.7454
41.190,63.6311
41.200,65.3248
41.210,62.7562
41.220,62.3778
41.230,60.1192
41.240,66.8781
41.250,67.7329
41.260,59.9999
41.270,66.1275
41.280,64.4385
41.290,65.3405
41.300,58.3879
41.310,62.6744
41.320,64.7183
41.330,65.4939
41.340,60.4846
41.350,60.0589
41.360,62.0883
41.370,63.5832
41.380,69.0210
41.390,68.3540
41.400,71.7222
41.410,61.0201
41.420,63.7330
41.430,70.9657
41.440,73.1131
41.450,63.0755
41.460,65.8977
41.470,68.0036
41.480,66.3036
41.490,62.3223
41.500,66.0148
41.510,67.4881
41.520,72.5830
41.530,69.1393
41.540,66.6013
41.550,73.2788
41.560,66.4317
41.570,68.3723
41.580,73.8389
41.590,67.8660
41.600,65.8617
41.610,65.7333
41.620,66.1677
41.630,65.2874
41.640,75.4378
41.650,75.7546
41.660,65.3694
41.670,71.4323
41.680,66.7639
41.690,72.2835
41.700,70.9826
41.710,74.5910
41.720,74.0127
41.730,73.9919
41.740,66.1827
41.750,66.5735
41.760,71.4899
41.770,76.5112
41.780,74.1245
41.790,66.4190
41.800,76.7333
41.810,77.5595
41.820,74.2179
41.830,72.6080
41.840,68.6252
41.850,77.4420
41.860,66.2040
41.870,67.6082
41.880,69.4542
41.890,76.1319
41.900,72.2254
41.910,75.1133
41.920,72.9218
41.930,72.0316
41.940,72.9404
41.950,73.6898
41.960,65.9254
41.970,71.8192
41.980,66.8469
41.990,64.4131
42.000,68.2917
42.010,68.7311
42.020,67.1670
42.030,66.7973
42.040,64.3292
42.050,74.6274
42.060,64.4164
42.070,62.6812
42.080,68.8557
42.090,69.7416
42.100,64.1853
42.110,71.9858
42.120,64.0203
42.130,68.5390
42.140,65.5205
42.150,67.1499
42.160,61.7867
42.170,69.4488
42.180,60.7630
42.190,67.2580
42.200,61.3962
42.210,64.5251
42.220,71.3353
42.230,69.7403
42.240,66.3542
42.250,70.6689
42.260,60.0715
42.270,69.9945
42.280,67.2641
42.290,68.8615
42.300,63.6172
42.310,61.5587
42.320,67.9668
42.330,61.4661
42.340,65.6394
42.350,68.1196
42.360,58.1828
42.370,67.8438
42.380,57.2403
42.390,64.5245
42.400,57.2624
42.410,56.7906
42.420,57.0342
42.430,61.7121
42.440,67.8339
42.450,60.0117
42.460,67.4116
42.470,58.0108
42.480,62.0341
42.490,58.6449
42.500,56.1577
42.510,61.6469
42.520,57.2384
42.530,60.9840
42.540,58.7518
42.550,60.2088
42.560,67.7077
42.570,66.1402
42.580,68.3670
42.590,57.9384
42.600,58.5768
42.610,67.6301
42.620,63.4137
42.630,60.2943
42.640,62.3646
42.650,68.1333
42.660,67.2955
42.670,65.1120
42.680,65.4566
42.690,64.5424
42.700,58.9857
42.710,67.2654
42.720,62.0189
42.730,64.9243
42.740,61.7603
42.750,63.2273
42.760,70.8384
42.770,69.6384
42.780,62.3104
42.790,65.1082
42.800,68.4768
42.810,68.5095
42.820,68.4153
42.830,61.8876
42.840,69.3708
42.850,71.9043
42.860,61.5181
42.870,71.2252
42.880,62.9029
42.890,66.5344
42.900,63.0268
42.910,66.4882
42.920,62.8057
42.930,62.6920
42.940,71.4084
42.950,70.8984
42.960,64.1853
42.970,64.7594
42.980,65.2148
42.990,64.2026
43.000,67.5609
43.010,71.8059
43.020,64.7335
43.030,66.3135
43.040,66.6216
43.050,69.1151
43.060,71.0092
43.070,68.1223
43.080,77.0360
43.090,67.6465
43.100,71.7673
43.110,77.1866
43.120,75.6883
43.130,68.5158
43.140,67.3640
43.150,77.1639
43.160,70.4808
43.170,69.4479
43.180,73.1533
43.190,71.3584
43.200,72.5931
43.210,67.4470
43.220,68.6450
43.230,70.5140
43.240,77.9008
43.250,74.6969
43.260,77.5076
43.270,77.6931
43.280,72.6432
43.290,67.2304
43.300,74.6949
43.310,67.4203
43.320,77.3138
43.330,73.9512
43.340,65.2709
43.350,74.9948
43.360,72.6581
43.370,71.3269
43.380,67.6804
43.390,66.2020
43.400,74.3075
43.410,73.0831
43.420,69.1632
43.430,71.1600
43.440,73.2572
43.450,71.0997
43.460,68.0898
43.470,68.1484
43.480,74.0133
43.490,64.4373
43.500,68.6405
43.510,65.8334
43.520,69.6973
43.530,67.5310
43.540,70.4535
43.550,61.5968
43.560,68.9939
43.570,64.8670
43.580,64.7324
43.590,67.4957
43.600,67.6375
43.610,64.5440
43.620,63.5437
43.630,69.9255
43.640,70.0145
43.650,67.1222
43.660,62.2511
43.670,59.8742
43.680,59.7481
43.690,63.4139
43.700,66.7241
43.710,67.0023
43.720,58.8917
43.730,60.3186
43.740,68.1137
43.750,67.4403
43.760,69.6617
43.770,58.1990
43.780,60.1134
43.790,61.8213
43.800,62.9616
43.810,56.9840
43.820,67.2993
43.830,57.2050
43.840,67.7490
43.850,67.1204
43.860,66.3651
43.870,59.2266
43.880,66.2829
43.890,63.5361
43.900,56.5177
43.910,66.4629
43.920,64.7552
43.930,59.8599
43.940,68.2743
43.950,63.7840
43.960,65.3713
43.970,59.0423
43.980,62.7608
43.990,67.8143
44.000,66.4738
44.010,62.2872
44.020,67.4095
44.030,68.2648
44.040,66.3267
44.050,68.2266
44.060,62.9149
44.070,59.2173
44.080,62.5518
44.090,62.4641
44.100,61.7101
44.110,58.4113
44.120,58.2501
44.130,58.3010
44.140,59.9578
44.150,62.8519
44.160,68.3696
44.170,65.4520
44.180,66.0107
44.190,65.2801
44.200,66.6821
44.210,71.1344
44.220,65.7249
44.230,61.3937
44.240,67.6655
44.250,66.0038
44.260,72.7441
44.270,65.4874
44.280,71.2647
44.290,73.3602
44.300,69.4973
44.310,72.3952
44.320,67.7118
44.330,71.3005
44.340,72.6439
44.350,74.3843
44.360,73.5254
44.370,70.3217
44.380,66.1603
44.390,69.5617
44.400,73.9177
44.410,71.8051
44.420,72.6963
44.430,74.6005
44.440,69.0265
44.450,73.2519
44.460,75.6637
44.470,73.3586
44.480,66.2698
44.490,68.4400
44.500,73.9759
44.510,69.3044
44.520,68.8991
44.530,74.1272
44.540,67.0531
44.550,72.6742
44.560,76.9171
44.570,77.1487
44.580,71.2873
44.590,67.4757
44.600,76.4851
44.610,70.5478
44.620,66.7645
44.630,75.3336
44.640,77.2785
44.650,73.5044
44.660,76.3956
44.670,77.0465
44.680,71.5519
44.690,66.7181
44.700,76.2228
44.710,77.0178
44.720,68.6777
44.730,69.1405
44.740,72.7831
44.750,72.5656
44.760,68.7944
44.770,71.5953
44.780,72.6438
44.790,71.6177
44.800,68.3580
44.810,68.7982
44.820,64.9316
44.830,73.8426
44.840,65.9058
44.850,66.7421
44.860,66.8284
44.870,74.6621
44.880,72.5340
44.890,66.2103
44.900,69.8960
44.910,73.8672
44.920,66.6290
44.930,68.9376
44.940,70.4486
44.950,74.2405
44.960,66.3721
44.970,71.5305
44.980,69.1236
44.990,72.6771
45.000,71.0122
45.010,70.5431
45.020,67.9511
45.030,70.7010
45.040,69.6079
45.050,72.1679
45.060,79.2665
45.070,71.7564
45.080,71.2928
45.090,77.9320
45.100,83.0777
45.110,74.0541
45.120,83.3635
45.130,86.1517
45.140,81.5309
45.150,84.0847
45.160,87.8216
45.170,88.6468
45.180,90.6411
45.190,80.6446
45.200,83.6031
45.210,93.7821
45.220,84.6387
45.230,87.9769
45.240,96.6573
45.250,97.2811
45.260,98.3861
45.270,89.0908
45.280,100.4194
45.290,101.9136
45.300,97.2132
45.310,97.1744
45.320,98.8795
45.330,98.9936
45.340,107.5607
45.350,96.9613
45.360,105.9939
45.370,109.9007
45.380,100.6968
45.390,101.2402
45.400,102.9839
45.410,103.8337
45.420,109.7576
45.430,113.2738
45.440,115.9364
45.450,109.8056
45.460,119.0063
45.470,109.5059
45.480,120.8343
45.490,116.8562
45.500,114.3217
45.510,119.6478
45.520,122.6129
45.530,120.0679
45.540,127.9521
45.550,123.2633
45.560,126.0490
45.570,126.9330
45.580,124.4341
45.590,124.9824
45.600,122.9839
45.610,124.4630
45.620,126.5550
45.630,136.4098
45.640,128.0510
45.650,134.1014
45.660,135.2893
45.670,132.3901
45.680,140.1532
45.690,135.9798
45.700,142.4667
45.710,143.9432
45.720,145.8330
45.730,137.3712
45.740,139.3534
45.750,142.5485
45.760,142.3926
45.770,150.2973
45.780,145.5521
45.790,145.9263
45.800,151.0588
45.810,151.2940
45.820,150.3928
45.830,155.6420
45.840,151.1532
45.850,155.4039
45.860,151.9895
45.870,153.7854
45.880,155.2506
45.890,163.1771
45.900,163.5833
45.910,161.8477
45.920,163.8088
45.930,159.6517
45.940,161.4848
45.950,166.1521
45.960,163.4033
45.970,161.6803
45.980,166.8709
45.990,166.2573
46.000,174.9014
46.010,170.2012
46.020,167.8308
46.030,170.7815
46.040,171.0360
46.050,172.4680
46.060,168.9900
46.070,166.6677
46.080,166.6901
46.090,168.4776
46.100,167.5499
46.110,163.1486
46.120,169.3304
46.130,174.2588
46.140,170.3805
46.150,163.1602
46.160,163.0648
46.170,164.2834
46.180,165.1862
46.190,166.8748
46.200,169.3858
46.210,168.0734
46.220,174.2707
46.230,173.7561
46.240,173.6767
46.250,172.9725
46.260,164.6626
46.270,168.3918
46.280,164.4835
46.290,168.6999
46.300,168.2696
46.310,165.9226
46.320,163.7451
46.330,164.2787
46.340,174.2459
46.350,174.3774
46.360,170.5897
46.370,173.8030
46.380,168.9400
46.390,174.4280
46.400,166.8933
46.410,165.0464
46.420,164.2837
46.430,167.5715
46.440,171.3000
46.450,171.9679
46.460,163.9169
46.470,163.7869
46.480,171.9640
46.490,164.3762
46.500,171.9286
46.510,165.5931
46.520,168.5307
46.530,173.8642
46.540,172.1115
46.550,172.1792
46.560,165.2635
46.570,173.7131
46.580,163.4765
46.590,169.1322
46.600,168.8786
46.610,170.2234
46.620,164.6217
46.630,174.8500
46.640,173.4342
46.650,166.5697
46.660,167.8990
46.670,174.9286
46.680,170.1072
46.690,169.1592
46.700,166.7392
46.710,165.2158
46.720,171.0197
46.730,169.1153
46.740,171.6256
46.750,171.3866
46.760,169.1978
46.770,170.5595
46.780,163.4871
46.790,163.3071
46.800,163.8278
46.810,174.9020
46.820,164.6299
46.830,171.2405
46.840,170.3530
46.850,174.3826
46.860,169.9679
46.870,164.2453
46.880,169.3340
46.890,164.1353
46.900,170.7086
46.910,173.0328
46.920,168.9850
46.930,171.1916
46.940,175.1199
46.950,169.0875
46.960,166.8376
46.970,170.2499
46.980,169.9282
46.990,171.7760
47.000,61.1672
47.010,70.5648
47.020,69.4086
47.030,61.9990
47.040,70.8307
47.050,70.0089
47.060,64.7214
47.070,66.6024
47.080,64.5002
47.090,72.0146
47.100,72.6185
47.110,68.1560
47.120,63.9688
47.130,71.3892
47.140,66.2557
47.150,66.0837
47.160,66.4245
47.170,64.1435
47.180,66.0490
47.190,63.8017
47.200,67.8529
47.210,69.3072
47.220,68.0016
47.230,63.6828
47.240,72.6300
47.250,69.1496
47.260,67.0314
47.270,68.8345
47.280,68.1318
47.290,76.1494
47.300,69.3763
47.310,69.3310
47.320,71.8260
47.330,69.1051
47.340,74.2552
47.350,75.4417
47.360,71.3868
47.370,72.2673
47.380,74.5693
47.390,71.3918
47.400,73.1386
47.410,73.3244
47.420,75.0639
47.430,74.2969
47.440,67.6877
47.450,66.5365
47.460,78.5816
47.470,74.8609
47.480,68.2274
47.490,77.5984
47.500,73.5312
47.510,68.8167
47.520,67.7813
47.530,75.5048
47.540,76.8521
47.550,71.9592
47.560,66.8986
47.570,72.5489
47.580,68.8353
47.590,76.0894
47.600,68.6433
47.610,67.5831
47.620,71.7872
47.630,73.2953
47.640,68.3600
47.650,75.8774
47.660,70.2527
47.670,67.1226
47.680,67.9925
47.690,71.0941
47.700,68.4972
47.710,72.0010
47.720,73.0030
47.730,64.9361
47.740,68.0842
47.750,71.4151
47.760,75.6153
47.770,66.6160
47.780,65.4879
47.790,73.0621
47.800,66.5974
47.810,66.7039
47.820,71.5748
47.830,64.3079
47.840,66.1270
47.850,72.3485
47.860,67.2435
47.870,73.0323
47.880,71.8670
47.890,70.7229
47.900,72.2542
47.910,61.5804
47.920,72.5304
47.930,61.7489
47.940,65.8259
47.950,64.0542
47.960,67.7226
47.970,68.9140
47.980,61.6426
47.990,69.0059
48.000,68.4464
48.010,62.4171
48.020,59.5798
48.030,59.8020
48.040,63.6442
48.050,62.8679
48.060,63.9454
48.070,59.4780
48.080,60.5854
48.090,61.5414
48.100,59.7009
48.110,60.5832
48.120,60.0025
48.130,65.6365
48.140,68.6836
48.150,68.7003
48.160,63.4005
48.170,67.6671
48.180,58.9675
48.190,69.0018
48.200,67.7280
48.210,63.9391
48.220,68.9843
48.230,68.8425
48.240,63.8995
48.250,60.2845
48.260,67.1177
48.270,57.7251
48.280,68.3465
48.290,59.0496
48.300,60.7908
48.310,58.4791
48.320,67.8863
48.330,68.9873
48.340,66.0854
48.350,61.5138
48.360,62.3991
48.370,65.0105
48.380,62.7098
48.390,66.6313
48.400,60.2854
48.410,60.1382
48.420,67.4709
48.430,66.8004
48.440,71.1582
48.450,62.1355
48.460,67.7130
48.470,68.8326
48.480,71.1954
48.490,69.4972
48.500,64.1204
48.510,70.4739
48.520,66.0527
48.530,66.1095
48.540,63.6951
48.550,67.8392
48.560,67.6706
48.570,62.2705
48.580,63.2130
48.590,67.0261
48.600,69.1574
48.610,70.3504
48.620,74.4424
48.630,71.4967
48.640,69.5942
48.650,63.6359
48.660,70.0749
48.670,72.1050
48.680,71.7137
48.690,72.6784
48.700,70.7126
48.710,70.7597
48.720,66.0321
48.730,72.3861
48.740,72.4408
48.750,67.9476
48.760,66.2692
48.770,77.7384
48.780,75.3677
48.790,75.9761
48.800,67.1971
48.810,76.2652
48.820,75.7861
48.830,71.6079
48.840,73.0126
48.850,66.8876
48.860,74.0122
48.870,74.2788
48.880,78.6693
48.890,77.0502
48.900,74.6778
48.910,67.9410
48.920,78.8827
48.930,66.9801
48.940,71.9361
48.950,67.4554
48.960,73.4217
48.970,69.2332
48.980,73.3468
48.990,76.5276
49.000,70.1792
49.010,74.6751
49.020,72.0267
49.030,68.4980
49.040,77.1963
49.050,76.8006
49.060,70.7646
49.070,66.1099
49.080,66.8862
49.090,70.7698
49.100,68.9001
49.110,75.3333
49.120,76.9022
49.130,70.0241
49.140,71.2571
49.150,76.3649
49.160,69.6896
49.170,76.0764
49.180,69.5703
49.190,64.1142
49.200,64.6511
49.210,65.0391
49.220,72.9054
49.230,73.7295
49.240,74.7822
49.250,71.1957
49.260,64.5530
49.270,71.7468
49.280,63.4470
49.290,66.1985
49.300,71.7667
49.310,65.0253
49.320,69.5066
49.330,69.5391
49.340,64.5166
49.350,61.4350
49.360,63.2030
49.370,63.3763
49.380,66.2723
49.390,59.9664
49.400,71.3370
49.410,67.1558
49.420,69.0862
49.430,63.2903
49.440,65.3617
49.450,67.2131
49.460,67.2414
49.470,69.3238
49.480,65.5559
49.490,67.9459
49.500,59.6322
49.510,67.7464
49.520,65.7130
49.530,63.7103
49.540,58.1823
49.550,61.9103
49.560,68.6564
49.570,65.7190
49.580,64.6287
49.590,68.4430
49.600,58.0126
49.610,60.5167
49.620,69.1912
49.630,68.9479
49.640,68.9466
49.650,61.9290
49.660,63.0374
49.670,67.6791
49.680,57.9950
49.690,62.6598
49.700,65.6221
49.710,67.0289
49.720,65.3531
49.730,68.6527
49.740,66.4359
49.750,64.6548
49.760,60.5099
49.770,66.3672
49.780,61.4508
49.790,63.3180
49.800,64.7888
49.810,60.3848
49.820,69.9372
49.830,68.6042
49.840,68.0601
49.850,60.8916
49.860,63.7747
49.870,66.7130
49.880,63.2992
49.890,62.1604
49.900,64.4108
49.910,65.0062
49.920,64.2276
49.930,62.0869
49.940,68.8853
49.950,62.5610
49.960,68.7504
49.970,63.9769
49.980,70.8678
49.990,66.5789
50.000,63.1150
50.010,67.2044
50.020,66.4813
50.030,64.0886
50.040,69.4420
50.050,71.4536
50.060,71.2549
50.070,73.8578
50.080,70.4109
50.090,69.6792
50.100,71.6168
50.110,75.3379
50.120,71.0898
50.130,68.0745
50.140,74.2954
50.150,65.4614
50.160,70.1777
50.170,72.0369
50.180,71.8502
50.190,69.1467
50.200,73.2932
50.210,69.7498
50.220,75.7415
50.230,77.5633
50.240,77.7707
50.250,67.5546
50.260,70.3534
50.270,75.3913
50.280,70.5779
50.290,76.7912
50.300,74.1251
50.310,77.2319
50.320,74.1659
50.330,68.4643
50.340,78.6584
50.350,71.6860
50.360,76.1786
50.370,70.8975
50.380,77.9173
50.390,77.4020
50.400,76.2974
50.410,70.4154
50.420,71.5299
50.430,72.7537
50.440,71.4419
50.450,76.6516
50.460,71.5213
50.470,74.9074
50.480,71.7531
50.490,74.5971
50.500,76.0752
50.510,67.4422
50.520,67.3024
50.530,76.7126
50.540,76.3334
50.550,71.8189
50.560,76.0684
50.570,68.8034
50.580,76.9978
50.590,66.6443
50.600,75.1629
50.610,72.3025
50.620,68.1648
50.630,68.7760
50.640,69.0906
50.650,69.9438
50.660,64.0977
50.670,72.6618
50.680,64.1798
50.690,68.8893
50.700,68.0309
50.710,67.7691
50.720,70.5425
50.730,69.7874
50.740,62.4706
50.750,65.0063
50.760,65.6439
50.770,64.5994
50.780,68.4881
50.790,65.4120
50.800,67.3758
50.810,67.3976
50.820,69.7419
50.830,63.0857
50.840,59.9127
50.850,70.8786
50.860,61.9004
50.870,66.0558
50.880,68.3805
50.890,63.9760
50.900,63.8193
50.910,62.9478
50.920,58.4087
50.930,69.8272
50.940,59.1223
50.950,63.4204
50.960,60.3748
50.970,65.5125
50.980,60.7378
50.990,60.2824
51.000,61.7435
51.010,62.7948
51.020,64.9520
51.030,69.5330
51.040,57.7227
51.050,65.2674
51.060,67.1769
51.070,61.7093
51.080,63.9353
51.090,65.3316
51.100,60.5020
51.110,65.5657
51.120,64.6737
51.130,60.8363
51.140,67.5536
51.150,61.8932
51.160,65.0206
51.170,69.4991
51.180,62.0095
51.190,64.8565
51.200,69.8602
51.210,60.6058
51.220,63.1960
51.230,61.9993
51.240,65.6990
51.250,66.4097
51.260,61.1580
51.270,67.3830
51.280,65.4599
51.290,63.6793
51.300,69.4451
51.310,66.5774
51.320,60.7385
51.330,63.4944
51.340,66.4854
51.350,63.0367
51.360,71.1882
51.370,72.9915
51.380,69.6575
51.390,71.8988
51.400,71.6857
51.410,65.9367
51.420,65.0686
51.430,64.2836
51.440,63.4433
51.450,73.6966
51.460,63.7428
51.470,72.8266
51.480,74.4376
51.490,68.2408
51.500,71.1157
51.510,69.6458
51.520,72.2163
51.530,74.1636
51.540,69.0367
51.550,70.1199
51.560,69.1733
51.570,73.8865
51.580,71.2407
51.590,73.2759
51.600,68.6346
51.610,70.2077
51.620,72.4445
51.630,71.7013
51.640,71.5474
51.650,72.3500
51.660,78.4358
51.670,75.4121
51.680,75.9956
51.690,69.1808
51.700,73.1205
51.710,78.9601
51.720,77.4673
51.730,70.6443
51.740,67.3570
51.750,77.3586
51.760,70.3264
51.770,75.0833
51.780,74.1537
51.790,69.0013
51.800,76.8332
51.810,67.2470
51.820,73.4858
51.830,68.3558
51.840,72.0682
51.850,70.9865
51.860,68.8584
51.870,66.9900
51.880,72.7826
51.890,69.2466
51.900,71.7638
51.910,67.6025
51.920,73.0290
51.930,72.9210
51.940,73.3609
51.950,76.4985
51.960,66.5006
51.970,66.1599
51.980,74.2522
51.990,72.9781
52.000,73.2060
52.010,67.4134
52.020,75.0344
52.030,74.7933
52.040,72.9940
52.050,71.8847
52.060,75.7084
52.070,65.8925
52.080,71.2113
52.090,66.6624
52.100,65.0066
52.110,66.1226
52.120,71.7284
52.130,72.0783
52.140,67.4527
52.150,72.4002
52.160,68.6495
52.170,62.0534
52.180,69.1072
52.190,70.8745
52.200,69.5820
52.210,69.7612
52.220,63.4693
52.230,68.4629
52.240,67.7166
52.250,64.8947
52.260,71.9244
52.270,61.3580
52.280,65.1727
52.290,67.9975
52.300,63.9780
52.310,67.0896
52.320,60.8556
52.330,67.1751
52.340,70.7859
52.350,66.9243
52.360,63.1343
52.370,68.0105
52.380,67.0753
52.390,68.6185
52.400,66.0552
52.410,66.7928
52.420,58.9569
52.430,58.8616
52.440,66.2273
52.450,63.4296
52.460,64.4545
52.470,68.7824
52.480,58.4299
52.490,66.9846
52.500,64.5023
52.510,64.7295
52.520,57.8997
52.530,58.9646
52.540,64.8350
52.550,63.5614
52.560,61.3376
52.570,63.6515
52.580,65.8379
52.590,67.2992
52.600,68.5034
52.610,67.1355
52.620,61.1046
52.630,63.6870
52.640,64.9127
52.650,67.7465
52.660,65.4307
52.670,65.0480
52.680,64.4080
52.690,67.8992
52.700,62.5072
52.710,70.5310
52.720,62.2251
52.730,63.1384
52.740,62.3164
52.750,69.0872
52.760,66.0536
52.770,63.4232
52.780,67.8360
52.790,65.2820
52.800,73.2972
52.810,70.8130
52.820,73.3117
52.830,62.5186
52.840,64.7571
52.850,63.8715
52.860,71.9666
52.870,66.1442
52.880,67.2560
52.890,74.9759
52.900,66.3468
52.910,73.3140
52.920,65.3006
52.930,70.7998
52.940,73.8843
52.950,68.6318
52.960,70.1929
52.970,72.6415
52.980,76.7065
52.990,71.3761
53.000,70.1814
53.010,68.5866
53.020,69.0849
53.030,76.6144
53.040,72.9820
53.050,77.9630
53.060,73.6694
53.070,67.2361
53.080,73.2540
53.090,68.9872
53.100,74.0562
53.110,69.4997
53.120,69.1518
53.130,67.3344
53.140,79.0195
53.150,73.0367
53.160,71.0185
53.170,75.8646
53.180,76.8409
53.190,76.6216
53.200,76.6644
53.210,77.5118
53.220,68.8744
53.230,73.9278
53.240,68.5939
53.250,68.6048
53.260,77.0267
53.270,72.6275
53.280,67.4368
53.290,72.9434
53.300,72.6140
53.310,69.8489
53.320,68.2133
53.330,73.8599
53.340,67.5992
53.350,69.3391
53.360,78.5349
53.370,67.4635
53.380,76.3473
53.390,77.8196
53.400,68.3547
53.410,72.0518
53.420,67.1746
53.430,70.9775
53.440,65.6435
53.450,68.9348
53.460,74.4581
53.470,68.4816
53.480,70.4295
53.490,76.0783
53.500,70.5193
53.510,72.6244
53.520,69.0567
53.530,72.8873
53.540,63.6020
53.550,71.4386
53.560,65.0711
53.570,66.2081
53.580,72.4005
53.590,65.4987
53.600,74.0928
53.610,68.3056
53.620,68.3975
53.630,71.7153
53.640,63.3461
53.650,65.0911
53.660,65.0332
53.670,71.1768
53.680,65.7157
53.690,71.3346
53.700,61.6610
53.710,65.9090
53.720,63.2422
53.730,67.3249
53.740,59.4291
53.750,67.2063
53.760,61.3015
53.770,66.7085
53.780,65.6308
53.790,67.5190
53.800,62.2438
53.810,65.2703
53.820,70.0201
53.830,66.7995
53.840,70.2383
53.850,67.0705
53.860,63.6906
53.870,66.3041
53.880,62.6301
53.890,65.9394
53.900,62.4071
53.910,63.9659
53.920,65.9973
53.930,65.1779
53.940,63.0679
53.950,66.5149
53.960,62.0375
53.970,60.1923
53.980,61.1971
53.990,69.9530
54.000,60.7852
54.010,64.0230
54.020,65.7574
54.030,60.8465
54.040,63.1979
54.050,59.1569
54.060,59.5535
54.070,69.4505
54.080,67.9428
54.090,62.5133
54.100,69.5199
54.110,65.3384
54.120,60.5197
54.130,63.8728
54.140,62.2342
54.150,62.8602
54.160,60.4170
54.170,66.7406
54.180,60.7746
54.190,62.5808
54.200,64.5632
54.210,72.0124
54.220,71.6023
54.230,71.2118
54.240,66.3305
54.250,72.0457
54.260,63.4569
54.270,63.9334
54.280,72.8496
54.290,68.1163
54.300,67.5017
54.310,65.7253
54.320,74.2506
54.330,66.2340
54.340,75.9929
54.350,67.3377
54.360,64.9587
54.370,67.1829
54.380,72.7854
54.390,74.5465
54.400,72.1453
54.410,66.9274
54.420,69.6559
54.430,67.8871
54.440,70.9768
54.450,76.5787
54.460,71.0992
54.470,69.7194
54.480,77.3247
54.490,78.6052
54.500,70.2306
54.510,68.5737
54.520,74.5771
54.530,73.3852
54.540,71.0138
54.550,72.4875
54.560,77.4436
54.570,69.1643
54.580,76.2884
54.590,71.1188
54.600,68.2420
54.610,79.0557
54.620,79.4220
54.630,72.3568
54.640,76.6313
54.650,68.4873
54.660,76.9238
54.670,71.9947
54.680,71.8165
54.690,76.6748
54.700,77.2870
54.710,76.7377
54.720,76.9724
54.730,78.2916
54.740,74.8480
54.750,71.7003
54.760,69.5156
54.770,73.5886
54.780,73.8152
54.790,72.1633
54.800,68.4107
54.810,72.8842
54.820,75.3457
54.830,72.1842
54.840,74.5628
54.850,75.7575
54.860,70.6367
54.870,69.6636
54.880,76.7142
54.890,65.7601
54.900,75.7663
54.910,66.1520
54.920,73.2424
54.930,74.3880
54.940,68.5991
54.950,67.7066
54.960,65.0410
54.970,72.0891
54.980,64.7050
54.990,63.5698
55.000,66.0652
55.010,69.7044
55.020,63.7571
55.030,67.5508
55.040,70.6063
55.050,71.5078
55.060,70.0260
55.070,61.5957
55.080,70.0883
55.090,69.5796
55.100,67.5779
55.110,68.6908
55.120,60.5859
55.130,67.2541
55.140,60.5001
55.150,65.1328
55.160,61.7685
55.170,65.6871
55.180,66.5723
55.190,66.4657
55.200,70.4760
55.210,67.8092
55.220,70.2497
55.230,69.7611
55.240,69.5040
55.250,62.8038
55.260,64.4128
55.270,69.0495
55.280,64.4608
55.290,59.8222
55.300,65.6112
55.310,68.4124
55.320,63.8563
55.330,65.6693
55.340,68.0632
55.350,59.7204
55.360,60.7131
55.370,64.0090
55.380,58.0722
55.390,69.8098
55.400,60.4979
55.410,64.8887
55.420,67.4519
55.430,67.3125
55.440,61.8563
55.450,64.9931
55.460,64.3482
55.470,68.1582
55.480,62.3989
55.490,64.9301
55.500,61.2084
55.510,62.5896
55.520,65.4217
55.530,60.8855
55.540,63.4864
55.550,66.1215
55.560,68.9929
55.570,61.8819
55.580,66.2493
55.590,61.1563
55.600,67.6755
55.610,68.0421
55.620,64.7741
55.630,67.0473
55.640,73.3835
55.650,64.5219
55.660,71.5645
55.670,70.1264
55.680,67.0028
55.690,71.8967
55.700,71.2098
55.710,74.9425
55.720,70.4870
55.730,64.8813
55.740,73.7300
55.750,70.6293
55.760,64.7286
55.770,73.3610
55.780,74.9164
55.790,74.8867
55.800,68.0768
55.810,76.6500
55.820,71.7091
55.830,65.8514
55.840,73.3761
55.850,74.5068
55.860,67.3385
55.870,68.1429
55.880,72.1676
55.890,73.6480
55.900,68.3092
55.910,76.5537
55.920,76.1510
55.930,73.2678
55.940,74.6207
55.950,78.1123
55.960,76.8953
55.970,74.0033
55.980,67.5131
55.990,71.4853
56.000,71.4927
56.010,78.2449
56.020,76.7500
56.030,70.2279
56.040,77.3512
56.050,69.0220
56.060,71.4614
56.070,73.0954
56.080,75.4052
56.090,75.7635
56.100,72.7347
56.110,78.1783
56.120,78.9523
56.130,72.3767
56.140,73.6792
56.150,73.6980
56.160,73.0857
56.170,78.8518
56.180,71.4310
56.190,69.3116
56.200,75.0834
56.210,73.7899
56.220,72.3240
56.230,77.5440
56.240,75.2267
56.250,73.2508
56.260,71.2868
56.270,70.7072
56.280,68.5487
56.290,73.5883
56.300,67.0963
56.310,72.7198
56.320,66.9580
56.330,72.4070
56.340,74.0330
56.350,73.9997
56.360,65.2769
56.370,71.1654
56.380,75.8394
56.390,73.6592
56.400,71.3391
56.410,67.0213
56.420,65.6938
56.430,68.8755
56.440,70.1468
56.450,62.7126
56.460,73.4678
56.470,73.7965
56.480,64.5095
56.490,68.8870
56.500,65.7631
56.510,72.7020
56.520,70.8714
56.530,62.0503
56.540,68.2793
56.550,72.4795
56.560,61.5647
56.570,67.0075
56.580,66.1956
56.590,66.2743
56.600,60.4754
56.610,69.7816
56.620,68.1673
56.630,61.8508
56.640,60.0498
56.650,61.4778
56.660,60.4059
56.670,59.8699
56.680,68.6439
56.690,66.0522
56.700,69.5727
56.710,63.3543
56.720,67.3771
56.730,67.7454
56.740,58.5009
56.750,65.2913
56.760,64.2160
56.770,62.3705
56.780,68.9525
56.790,66.2389
56.800,69.3477
56.810,59.2503
56.820,63.6448
56.830,68.0244
56.840,63.9775
56.850,59.2413
56.860,69.9026
56.870,59.8783
56.880,63.9991
56.890,65.6385
56.900,68.2867
56.910,59.7221
56.920,61.9170
56.930,59.6652
56.940,66.9431
56.950,67.8643
56.960,69.5157
56.970,69.2392
56.980,71.2007
56.990,67.1067
57.000,70.2906
57.010,60.6065
57.020,69.2456
57.030,61.1264
57.040,67.0217
57.050,71.5206
57.060,63.6533
57.070,65.8486
57.080,72.2293
57.090,62.7430
57.100,71.0322
57.110,69.6317
57.120,66.4384
57.130,74.5630
57.140,70.0682
57.150,73.8936
57.160,75.2561
57.170,70.2961
57.180,64.2686
57.190,72.0460
57.200,67.4238
57.210,72.6974
57.220,65.7161
57.230,73.3805
57.240,71.1195
57.250,71.0104
57.260,66.7633
57.270,73.5739
57.280,77.2655
57.290,70.1787
57.300,70.5694
57.310,77.6144
57.320,72.6057
57.330,70.6680
57.340,76.8144
57.350,71.5751
57.360,75.7235
57.370,67.2792
57.380,68.2196
57.390,70.1656
57.400,78.6219
57.410,79.2100
57.420,74.8259
57.430,78.4728
57.440,68.8542
57.450,69.6299
57.460,79.8137
57.470,73.8507
57.480,75.6501
57.490,78.2470
57.500,76.1610
57.510,72.0765
57.520,69.0333
57.530,72.2054
57.540,71.5435
57.550,77.9319
57.560,72.1073
57.570,79.2401
57.580,75.7626
57.590,77.8669
57.600,68.2110
57.610,70.2021
57.620,67.6120
57.630,69.8430
57.640,68.0468
57.650,74.2887
57.660,78.4538
57.670,70.5270
57.680,76.6471
57.690,77.1155
57.700,75.6051
57.710,76.4906
57.720,70.2725
57.730,76.5970
57.740,70.0728
57.750,67.8244
57.760,66.6844
57.770,65.6017
57.780,68.1440
57.790,70.3904
57.800,76.4263
57.810,68.7238
57.820,71.9670
57.830,66.2020
57.840,72.5723
57.850,68.3002
57.860,71.9125
57.870,71.3588
57.880,73.2851
57.890,71.0061
57.900,65.1837
57.910,64.5895
57.920,66.8436
57.930,72.2155
57.940,67.6439
57.950,62.7548
57.960,62.2029
57.970,66.0556
57.980,61.7316
57.990,64.0841
58.000,69.2462
58.010,68.9337
58.020,63.4827
58.030,68.0746
58.040,59.7853
58.050,69.6835
58.060,66.2941
58.070,62.1645
58.080,69.3907
58.090,69.9403
58.100,67.8409
58.110,70.4867
58.120,64.5356
58.130,68.1917
58.140,58.9193
58.150,59.3196
58.160,65.1774
58.170,68.3906
58.180,66.1500
58.190,69.4362
58.200,60.7314
58.210,69.6160
58.220,64.8048
58.230,65.2779
58.240,64.6081
58.250,67.9165
58.260,69.2480
58.270,62.6277
58.280,67.2682
58.290,63.3957
58.300,65.7257
58.310,66.9677
58.320,69.3401
58.330,65.9317
58.340,60.4812
58.350,65.7538
58.360,64.5762
58.370,66.5784
58.380,64.0596
58.390,67.6167
58.400,69.0693
58.410,67.8945
58.420,64.4689
58.430,64.9177
58.440,63.0979
58.450,67.0935
58.460,70.8658
58.470,62.5883
58.480,71.4800
58.490,67.6497
58.500,64.8792
58.510,72.0840
58.520,67.6476
58.530,70.2029
58.540,66.3805
58.550,71.7667
58.560,72.5036
58.570,67.5822
58.580,72.7911
58.590,71.1230
58.600,71.9834
58.610,73.0419
58.620,75.3891
58.630,65.4303
58.640,66.1724
58.650,65.9287
58.660,69.1073
58.670,70.9317
58.680,68.9131
58.690,73.3389
58.700,77.3420
58.710,76.1961
58.720,76.5413
58.730,77.6614
58.740,67.6739
58.750,70.3019
58.760,70.4046
58.770,69.2035
58.780,69.9130
58.790,79.1182
58.800,78.8852
58.810,72.3501
58.820,70.8442
58.830,71.1093
58.840,77.5221
58.850,75.0686
58.860,70.3826
58.870,76.9710
58.880,76.6951
58.890,73.5191
58.900,74.9456
58.910,79.0343
58.920,74.4986
58.930,79.0521
58.940,70.4085
58.950,76.8473
58.960,79.3219
58.970,73.5592
58.980,70.2617
58.990,77.0642
59.000,72.0990
59.010,74.2826
59.020,79.6064
59.030,76.5923
59.040,70.9385
59.050,79.0786
59.060,73.5666
59.070,69.7640
59.080,77.2274
59.090,70.3861
59.100,75.3336
59.110,74.7481
59.120,74.5783
59.130,73.8296
59.140,73.1449
59.150,67.8257
59.160,69.0016
59.170,70.2918
59.180,76.4795
59.190,69.2270
59.200,65.8922
59.210,71.9921
59.220,68.1426
59.230,73.7326
59.240,72.3541
59.250,74.0576
59.260,65.1136
59.270,71.6283
59.280,71.3300
59.290,69.1602
59.300,70.3800
59.310,64.8554
59.320,63.2583
59.330,69.4736
59.340,63.2731
59.350,71.5288
59.360,70.9106
59.370,73.8383
59.380,63.7465
59.390,65.7346
59.400,68.6149
59.410,72.0572
59.420,65.0260
59.430,65.0887
59.440,71.0783
59.450,71.7727
59.460,68.5457
59.470,60.9034
59.480,59.8287
59.490,60.6340
59.500,69.6688
59.510,70.6444
59.520,59.4521
59.530,62.3975
59.540,64.0999
59.550,63.7450
59.560,63.1634
59.570,65.4982
59.580,59.7309
59.590,63.5130
59.600,63.8278
59.610,59.2745
59.620,59.1025
59.630,62.0779
59.640,65.0121
59.650,60.8325
59.660,61.1066
59.670,65.6860
59.680,58.8702
59.690,70.4177
59.700,66.1162
59.710,65.1097
59.720,61.5074
59.730,65.4450
59.740,66.7410
59.750,65.8795
59.760,67.4009
59.770,64.4927
59.780,69.1815
59.790,68.7349
59.800,65.0415
59.810,67.9682
59.820,70.1877
59.830,70.9108
59.840,64.6090
59.850,62.8087
59.860,64.0815
59.870,68.5647
59.880,67.9406
59.890,72.2535
59.900,68.8158
59.910,61.6709
59.920,64.5596
59.930,63.4899
59.940,74.2961
59.950,63.8041
59.960,70.9488
59.970,63.0087
59.980,74.9575
59.990,73.6625
