t_s,envelope_uV
0.000,75.2892
0.010,75.2781
0.020,74.3254
0.030,64.3382
0.040,66.4141
0.050,72.1317
0.060,72.7258
0.070,72.0985
0.080,66.5219
0.090,72.8114
0.100,79.7253
0.110,76.2165
0.120,66.2985
0.130,71.5937
0.140,69.9022
0.150,69.9493
0.160,68.9989
0.170,72.4313
0.180,74.9061
0.190,78.3916
0.200,74.5570
0.210,81.9175
0.220,70.2095
0.230,76.0466
0.240,71.0151
0.250,69.8705
0.260,82.2661
0.270,69.9341
0.280,72.5428
0.290,76.7784
0.300,72.5491
0.310,81.7436
0.320,75.2779
0.330,79.6584
0.340,71.9855
0.350,78.3358
0.360,77.6423
0.370,73.6985
0.380,77.5414
0.390,78.4846
0.400,78.2335
0.410,82.1684
0.420,80.0034
0.430,80.9605
0.440,74.5988
0.450,68.9459
0.460,78.8935
0.470,72.5990
0.480,77.2444
0.490,75.3014
0.500,77.3770
0.510,76.9556
0.520,76.5226
0.530,77.4972
0.540,70.5720
0.550,69.4656
0.560,73.0025
0.570,72.4556
0.580,70.8661
0.590,67.1704
0.600,68.0914
0.610,69.9278
0.620,67.6265
0.630,70.6941
0.640,71.5948
0.650,71.3042
0.660,72.3598
0.670,73.4768
0.680,75.3765
0.690,72.4238
0.700,67.8207
0.710,72.3730
0.720,68.6644
0.730,73.9820
0.740,71.7274
0.750,72.4081
0.760,75.0965
0.770,70.3703
0.780,70.9881
0.790,72.0039
0.800,63.1040
0.810,71.3662
0.820,73.7698
0.830,74.0438
0.840,67.3881
0.850,72.0226
0.860,74.2203
0.870,70.9219
0.880,61.1748
0.890,60.5894
0.900,73.4850
0.910,68.4300
0.920,67.0547
0.930,69.3485
0.940,65.8705
0.950,72.7527
0.960,65.3353
0.970,60.3715
0.980,67.2852
0.990,68.3065
1.000,65.8157
1.010,63.3627
1.020,61.8330
1.030,68.8525
1.040,61.3359
1.050,69.4796
1.060,64.9464
1.070,63.2619
1.080,58.2757
1.090,67.1988
1.100,71.0827
1.110,64.5703
1.120,63.2805
1.130,60.5944
1.140,62.1877
1.150,58.7263
1.160,68.5445
1.170,63.4621
1.180,69.8173
1.190,69.4061
1.200,72.8100
1.210,62.7935
1.220,72.4054
1.230,68.5868
1.240,63.1297
1.250,71.0677
1.260,60.9532
1.270,73.2173
1.280,69.0863
1.290,66.1011
1.300,67.9135
1.310,74.0533
1.320,73.1849
1.330,68.5801
1.340,68.9106
1.350,71.7448
1.360,66.7156
1.370,75.8244
1.380,64.2095
1.390,65.1745
1.400,69.0099
1.410,72.0780
1.420,77.2023
1.430,77.0712
1.440,72.6023
1.450,76.2460
1.460,73.2723
1.470,69.8823
1.480,67.1121
1.490,72.2339
1.500,72.1762
1.510,77.4823
1.520,68.2966
1.530,68.1334
1.540,72.1976
1.550,68.0934
1.560,70.2940
1.570,76.3290
1.580,70.2397
1.590,80.0697
1.600,81.0756
1.610,75.7636
1.620,72.1936
1.630,78.0917
1.640,80.3485
1.650,75.4055
1.660,71.9273
1.670,80.2299
1.680,78.9546
1.690,82.0502
1.700,76.9660
1.710,74.0971
1.720,71.4050
1.730,77.9938
1.740,80.8857
1.750,80.6736
1.760,73.1642
1.770,76.9275
1.780,70.2499
1.790,75.9164
1.800,74.6334
1.810,74.1950
1.820,82.7073
1.830,71.7358
1.840,79.1844
1.850,79.0006
1.860,81.7196
1.870,76.7310
1.880,71.2957
1.890,76.4364
1.900,69.5969
1.910,71.4331
1.920,72.5472
1.930,78.8440
1.940,70.0854
1.950,75.3469
1.960,74.1305
1.970,71.2263
1.980,70.7137
1.990,75.2420
2.000,70.2022
2.010,73.5809
2.020,73.6063
2.030,73.6941
2.040,72.4759
2.050,71.0589
2.060,74.7401
2.070,69.1097
2.080,73.4219
2.090,79.1996
2.100,66.7562
2.110,73.0284
2.120,71.8356
2.130,75.2832
2.140,75.9506
2.150,74.6826
2.160,73.9958
2.170,75.1573
2.180,71.6169
2.190,68.4192
2.200,75.5912
2.210,64.3667
2.220,63.6588
2.230,70.8404
2.240,65.1077
2.250,62.6372
2.260,72.7575
2.270,73.6023
2.280,69.7727
2.290,71.6565
2.300,66.6145
2.310,68.1101
2.320,70.8365
2.330,67.7694
2.340,64.4749
2.350,66.1282
2.360,60.7020
2.370,68.6692
2.380,72.3147
2.390,70.4351
2.400,64.5693
2.410,62.6208
2.420,61.4443
2.430,60.8798
2.440,62.0816
2.450,60.1650
2.460,66.6258
2.470,66.9280
2.480,59.7796
2.490,58.8577
2.500,67.9485
2.510,67.6672
2.520,67.6264
2.530,65.0386
2.540,61.9059
2.550,59.8987
2.560,60.0159
2.570,70.2292
2.580,58.7871
2.590,68.3294
2.600,71.7300
2.610,66.8195
2.620,69.2428
2.630,65.0075
2.640,67.7179
2.650,59.8757
2.660,73.7146
2.670,70.1309
2.680,60.1876
2.690,61.7303
2.700,61.6118
2.710,65.9638
2.720,72.0856
2.730,64.5822
2.740,75.0844
2.750,74.0724
2.760,72.9770
2.770,67.9750
2.780,70.1557
2.790,75.7706
2.800,66.5281
2.810,67.9112
2.820,73.4033
2.830,73.7885
2.840,69.3883
2.850,74.4174
2.860,69.0912
2.870,76.7820
2.880,69.0790
2.890,67.9576
2.900,66.3627
2.910,68.4007
2.920,69.2975
2.930,75.1637
2.940,75.4540
2.950,79.4288
2.960,71.3716
2.970,80.0483
2.980,73.7157
2.990,80.7564
3.000,74.3516
3.010,73.5571
3.020,79.7226
3.030,78.0713
3.040,78.3739
3.050,75.6464
3.060,76.1578
3.070,78.3659
3.080,74.1916
3.090,73.5781
3.100,77.3407
3.110,72.4050
3.120,77.9587
3.130,76.5901
3.140,72.7599
3.150,77.9207
3.160,77.9027
3.170,73.6419
3.180,76.1411
3.190,73.4510
3.200,73.9374
3.210,82.0961
3.220,81.4147
3.230,71.1704
3.240,74.8761
3.250,76.4257
3.260,77.6705
3.270,76.3854
3.280,75.2452
3.290,75.1906
3.300,69.9370
3.310,74.6143
3.320,79.6378
3.330,82.5416
3.340,77.9458
3.350,78.6192
3.360,72.2554
3.370,71.7304
3.380,72.1037
3.390,70.6721
3.400,77.4061
3.410,68.6347
3.420,79.2822
3.430,75.8079
3.440,67.7833
3.450,74.2367
3.460,69.9898
3.470,78.8450
3.480,68.9456
3.490,76.5562
3.500,79.3547
3.510,72.3539
3.520,73.9313
3.530,77.8754
3.540,68.4551
3.550,72.8699
3.560,64.6125
3.570,69.6200
3.580,64.5596
3.590,65.9428
3.600,69.0310
3.610,70.3391
3.620,77.1192
3.630,70.0518
3.640,73.8306
3.650,63.3106
3.660,69.4171
3.670,62.4452
3.680,67.5478
3.690,68.9308
3.700,69.4748
3.710,74.6199
3.720,64.3085
3.730,73.6431
3.740,65.4633
3.750,67.3409
3.760,68.4667
3.770,60.5306
3.780,63.6275
3.790,65.7226
3.800,64.8944
3.810,67.4377
3.820,63.0795
3.830,61.7771
3.840,70.8598
3.850,62.1919
3.860,70.6212
3.870,61.0490
3.880,68.5076
3.890,60.1492
3.900,61.2749
3.910,68.2479
3.920,66.4867
3.930,64.7322
3.940,72.3577
3.950,66.8036
3.960,68.2259
3.970,64.9919
3.980,59.8948
3.990,60.8585
4.000,71.8861
4.010,68.6330
4.020,69.6052
4.030,67.3740
4.040,64.3054
4.050,61.9322
4.060,61.0493
4.070,68.2003
4.080,71.1693
4.090,66.9518
4.100,65.4573
4.110,61.6824
4.120,70.5021
4.130,69.6439
4.140,65.4554
4.150,64.2482
4.160,73.2017
4.170,70.6614
4.180,65.2357
4.190,69.8454
4.200,75.2388
4.210,64.6645
4.220,69.9000
4.230,67.5495
4.240,70.6139
4.250,65.2723
4.260,71.5056
4.270,68.0472
4.280,73.3963
4.290,78.4559
4.300,66.7939
4.310,68.3794
4.320,78.3097
4.330,72.3096
4.340,77.1362
4.350,73.7105
4.360,74.1647
4.370,72.8853
4.380,80.8773
4.390,70.9541
4.400,67.5273
4.410,68.3586
4.420,71.0898
4.430,70.9339
4.440,77.6272
4.450,74.4428
4.460,81.9950
4.470,70.9223
4.480,82.8092
4.490,70.6572
4.500,73.8924
4.510,72.6357
4.520,75.2950
4.530,77.6388
4.540,74.7809
4.550,77.1838
4.560,82.2349
4.570,83.7567
4.580,75.7355
4.590,82.2507
4.600,73.3703
4.610,74.1965
4.620,70.8614
4.630,74.2050
4.640,73.6780
4.650,72.6152
4.660,76.7999
4.670,75.2089
4.680,83.1633
4.690,79.2212
4.700,73.8499
4.710,73.4823
4.720,75.4961
4.730,81.3313
4.740,83.6501
4.750,78.0519
4.760,83.2879
4.770,75.0986
4.780,74.1433
4.790,78.1839
4.800,71.8104
4.810,71.5892
4.820,72.7592
4.830,79.7842
4.840,74.0578
4.850,71.8910
4.860,76.0918
4.870,69.8291
4.880,70.9221
4.890,70.9095
4.900,70.2961
4.910,78.3124
4.920,73.3570
4.930,77.4944
4.940,73.4827
4.950,74.9479
4.960,71.6241
4.970,69.0119
4.980,65.2921
4.990,68.3504
5.000,75.0337
5.010,74.0380
5.020,75.1434
5.030,67.0575
5.040,69.9459
5.050,70.1715
5.060,68.7641
5.070,73.7438
5.080,70.1607
5.090,64.3306
5.100,64.3703
5.110,74.8048
5.120,65.2722
5.130,72.5194
5.140,69.4637
5.150,69.6287
5.160,66.1979
5.170,70.3042
5.180,63.3266
5.190,64.7173
5.200,69.3446
5.210,67.2406
5.220,67.5460
5.230,71.3571
5.240,68.3912
5.250,68.4166
5.260,60.3060
5.270,70.2805
5.280,59.7393
5.290,65.9620
5.300,63.5184
5.310,69.5590
5.320,63.9060
5.330,66.5579
5.340,64.7902
5.350,65.2374
5.360,60.8871
5.370,65.4513
5.380,66.6735
5.390,62.2000
5.400,68.4571
5.410,64.1480
5.420,65.0214
5.430,70.1391
5.440,62.3786
5.450,68.6602
5.460,65.6501
5.470,72.1535
5.480,71.5698
5.490,71.1844
5.500,62.6921
5.510,60.6368
5.520,71.1765
5.530,65.8604
5.540,61.6515
5.550,62.7521
5.560,70.2250
5.570,69.6427
5.580,72.1506
5.590,74.0394
5.600,72.1322
5.610,66.5812
5.620,69.8866
5.630,68.0333
5.640,64.6372
5.650,68.1417
5.660,66.3372
5.670,65.7588
5.680,74.5433
5.690,64.8054
5.700,69.5123
5.710,69.6948
5.720,65.0873
5.730,70.9937
5.740,76.5221
5.750,73.9227
5.760,66.9346
5.770,80.1886
5.780,79.5629
5.790,75.7188
5.800,69.4145
5.810,76.0641
5.820,71.9317
5.830,70.9776
5.840,73.3441
5.850,76.2979
5.860,78.9229
5.870,75.1108
5.880,71.3650
5.890,70.2093
5.900,80.0037
5.910,74.4172
5.920,79.0307
5.930,78.9807
5.940,79.1328
5.950,78.2850
5.960,83.5500
5.970,82.2807
5.980,82.1869
5.990,78.5824
6.000,75.6190
6.010,76.2117
6.020,84.0291
6.030,84.1493
6.040,71.6157
6.050,74.2402
6.060,77.1712
6.070,76.5133
6.080,73.5356
6.090,77.7388
6.100,81.4454
6.110,75.6108
6.120,76.7084
6.130,81.0085
6.140,77.6131
6.150,72.6341
6.160,80.0356
6.170,81.3769
6.180,82.9546
6.190,72.1618
6.200,78.4237
6.210,82.8294
6.220,75.4299
6.230,76.3411
6.240,72.2192
6.250,73.6067
6.260,74.6388
6.270,74.5256
6.280,81.4103
6.290,68.5958
6.300,75.7294
6.310,78.5728
6.320,78.7750
6.330,70.9906
6.340,68.4029
6.350,72.2101
6.360,68.3175
6.370,67.7445
6.380,66.5936
6.390,74.4281
6.400,66.4868
6.410,74.7254
6.420,75.9932
6.430,70.6396
6.440,75.8946
6.450,71.2367
6.460,71.0225
6.470,77.2176
6.480,64.6815
6.490,65.1236
6.500,76.0950
6.510,63.4233
6.520,73.6213
6.530,68.2299
6.540,73.6082
6.550,62.5322
6.560,74.4221
6.570,68.9021
6.580,63.9089
6.590,73.9590
6.600,62.7837
6.610,72.5089
6.620,69.6718
6.630,70.3236
6.640,63.8324
6.650,64.4289
6.660,72.1665
6.670,63.1928
6.680,70.0976
6.690,66.7637
6.700,70.4987
6.710,67.7930
6.720,70.2323
6.730,61.4617
6.740,60.0161
6.750,70.2309
6.760,72.7035
6.770,59.6611
6.780,70.1671
6.790,69.5776
6.800,62.5558
6.810,71.7585
6.820,60.2257
6.830,64.8591
6.840,68.4251
6.850,63.3677
6.860,63.7290
6.870,61.2401
6.880,66.8821
6.890,67.4275
6.900,65.0847
6.910,72.6247
6.920,64.3933
6.930,62.3790
6.940,66.9354
6.950,73.3309
6.960,62.3075
6.970,63.8370
6.980,66.2785
6.990,69.2617
7.000,67.2628
7.010,75.8321
7.020,73.0236
7.030,63.6105
7.040,73.0769
7.050,72.7043
7.060,67.8348
7.070,76.6694
7.080,76.2333
7.090,71.7524
7.100,77.0450
7.110,67.5516
7.120,75.0419
7.130,67.3139
7.140,76.8875
7.150,74.0175
7.160,73.9514
7.170,69.6556
7.180,71.4267
7.190,80.2458
7.200,79.0715
7.210,73.9932
7.220,80.1987
7.230,80.7937
7.240,81.3546
7.250,71.5637
7.260,76.1482
7.270,76.4425
7.280,74.6611
7.290,78.0320
7.300,73.1837
7.310,71.8950
7.320,75.7984
7.330,73.3382
7.340,79.4970
7.350,76.6480
7.360,76.4877
7.370,79.8949
7.380,71.3034
7.390,71.8107
7.400,83.3507
7.410,79.3924
7.420,81.9529
7.430,83.9423
7.440,78.3899
7.450,84.5237
7.460,73.5128
7.470,73.6040
7.480,74.6053
7.490,76.3874
7.500,75.8968
7.510,83.2678
7.520,78.9975
7.530,70.9641
7.540,72.5391
7.550,73.2722
7.560,76.9081
7.570,77.9623
7.580,79.3068
7.590,77.0007
7.600,77.7376
7.610,83.6326
7.620,76.9352
7.630,72.3128
7.640,82.6278
7.650,77.8266
7.660,80.2694
7.670,72.8006
7.680,77.3480
7.690,75.9400
7.700,81.3808
7.710,78.0640
7.720,75.8949
7.730,82.3511
7.740,80.9245
7.750,68.2345
7.760,72.5725
7.770,77.6164
7.780,67.9120
7.790,73.0333
7.800,71.5785
7.810,79.0750
7.820,76.4282
7.830,72.8638
7.840,74.3673
7.850,72.9906
7.860,79.2774
7.870,72.8616
7.880,75.0999
7.890,68.8629
7.900,77.2701
7.910,76.3923
7.920,72.3096
7.930,68.0278
7.940,76.5475
7.950,77.1296
7.960,73.3267
7.970,73.3244
7.980,69.0814
7.990,63.1299
8.000,71.5886
8.010,65.7567
8.020,64.4457
8.030,69.4199
8.040,74.0185
8.050,73.1085
8.060,73.2343
8.070,73.2168
8.080,74.1059
8.090,64.8348
8.100,69.0234
8.110,62.7664
8.120,68.4129
8.130,61.0400
8.140,66.3454
8.150,70.4652
8.160,73.3392
8.170,71.9741
8.180,67.2803
8.190,73.1743
8.200,64.8657
8.210,69.9376
8.220,61.3333
8.230,64.2075
8.240,71.6081
8.250,64.1141
8.260,72.0678
8.270,68.1093
8.280,74.1429
8.290,72.5481
8.300,70.9490
8.310,62.9413
8.320,74.4059
8.330,66.2311
8.340,72.7793
8.350,61.5118
8.360,61.7404
8.370,70.6604
8.380,70.7465
8.390,75.5530
8.400,65.8478
8.410,64.0998
8.420,75.4073
8.430,72.7616
8.440,64.0301
8.450,75.9695
8.460,63.9521
8.470,66.2822
8.480,69.1863
8.490,70.1144
8.500,71.6620
8.510,69.6689
8.520,77.6964
8.530,71.5914
8.540,71.2629
8.550,74.2144
8.560,79.0630
8.570,66.9952
8.580,69.3959
8.590,72.7709
8.600,74.4834
8.610,77.4638
8.620,75.6961
8.630,68.7506
8.640,67.4042
8.650,67.7619
8.660,72.9364
8.670,73.2246
8.680,80.1485
8.690,82.5045
8.700,76.3701
8.710,71.0790
8.720,82.0068
8.730,77.8783
8.740,77.6546
8.750,74.3693
8.760,78.7219
8.770,71.2898
8.780,80.4165
8.790,78.3334
8.800,78.7171
8.810,79.2256
8.820,84.3279
8.830,77.7649
8.840,75.1369
8.850,77.8644
8.860,82.3350
8.870,80.0395
8.880,73.3915
8.890,84.4701
8.900,83.2755
8.910,80.2314
8.920,81.9892
8.930,80.9302
8.940,82.2726
8.950,77.5185
8.960,84.8379
8.970,80.8069
8.980,83.0153
8.990,84.3201
9.000,75.2382
9.010,80.0314
9.020,73.1949
9.030,83.6704
9.040,78.6250
9.050,75.2730
9.060,84.1192
9.070,75.7308
9.080,73.4028
9.090,78.9032
9.100,81.1928
9.110,75.4737
9.120,77.0935
9.130,75.8872
9.140,76.5043
9.150,82.9508
9.160,75.7893
9.170,73.0301
9.180,72.9433
9.190,77.2528
9.200,75.6289
9.210,77.9562
9.220,79.5328
9.230,68.6652
9.240,71.6958
9.250,70.7024
9.260,67.2430
9.270,67.3629
9.280,78.3768
9.290,75.6829
9.300,74.6498
9.310,65.7745
9.320,73.2993
9.330,73.0621
9.340,68.7385
9.350,67.4640
9.360,69.1052
9.370,75.1026
9.380,69.8170
9.390,64.0107
9.400,67.5965
9.410,70.7923
9.420,66.2006
9.430,65.5461
9.440,66.6225
9.450,75.6672
9.460,66.9904
9.470,71.0880
9.480,65.5379
9.490,73.6716
9.500,71.2994
9.510,64.9450
9.520,73.1921
9.530,63.0295
9.540,62.7835
9.550,68.7662
9.560,69.7782
9.570,66.6109
9.580,67.8523
9.590,61.2708
9.600,61.9345
9.610,74.2520
9.620,63.3322
9.630,66.8454
9.640,67.4547
9.650,70.0353
9.660,63.3576
9.670,60.3694
9.680,66.0715
9.690,66.8911
9.700,61.7812
9.710,69.9794
9.720,66.5110
9.730,69.9482
9.740,67.5356
9.750,67.9685
9.760,72.5870
9.770,74.0159
9.780,64.0190
9.790,64.6337
9.800,63.8703
9.810,67.2195
9.820,69.1184
9.830,64.3735
9.840,68.1865
9.850,71.1404
9.860,75.4539
9.870,65.6328
9.880,67.3156
9.890,64.4060
9.900,67.4067
9.910,75.0716
9.920,72.3707
9.930,76.4041
9.940,74.1642
9.950,73.7877
9.960,71.5551
9.970,79.3203
9.980,68.1987
9.990,68.2895
10.000,77.4590
10.010,74.3169
10.020,79.4831
10.030,70.2146
10.040,69.8667
10.050,68.9899
10.060,70.2163
10.070,80.1489
10.080,78.3514
10.090,70.6375
10.100,81.0755
10.110,75.2494
10.120,70.2191
10.130,73.6725
10.140,71.3724
10.150,73.5474
10.160,78.8215
10.170,77.0527
10.180,70.6762
10.190,71.8869
10.200,74.9282
10.210,83.7876
10.220,74.6538
10.230,83.0005
10.240,71.3760
10.250,72.6166
10.260,73.5508
10.270,84.8357
10.280,81.3120
10.290,71.5578
10.300,71.8099
10.310,75.1850
10.320,85.7450
10.330,82.5872
10.340,77.2554
10.350,74.3754
10.360,77.1742
10.370,82.9596
10.380,77.2851
10.390,84.9382
10.400,84.7676
10.410,82.6090
10.420,76.8115
10.430,74.0508
10.440,78.7049
10.450,83.8803
10.460,74.7206
10.470,74.4083
10.480,83.0046
10.490,79.0593
10.500,81.9416
10.510,81.0000
10.520,78.0086
10.530,83.5826
10.540,82.4695
10.550,75.3683
10.560,71.5692
10.570,70.9543
10.580,80.2032
10.590,82.6043
10.600,71.7225
10.610,72.6275
10.620,72.9827
10.630,81.1978
10.640,75.6530
10.650,77.3841
10.660,76.4693
10.670,80.0090
10.680,68.4337
10.690,74.5485
10.700,67.6497
10.710,74.7415
10.720,68.0079
10.730,68.5738
10.740,78.8983
10.750,72.1758
10.760,66.4691
10.770,74.8243
10.780,73.4982
10.790,74.1375
10.800,72.2517
10.810,76.3745
10.820,74.3913
10.830,70.1750
10.840,73.2434
10.850,67.1622
10.860,69.7738
10.870,71.3772
10.880,73.1505
10.890,70.1072
10.900,72.8872
10.910,75.7896
10.920,67.7509
10.930,65.7266
10.940,75.5434
10.950,70.5619
10.960,65.8873
10.970,61.6621
10.980,69.6331
10.990,69.8092
11.000,65.4728
11.010,73.2222
11.020,67.1773
11.030,69.9130
11.040,70.2301
11.050,71.6874
11.060,72.1087
11.070,73.2292
11.080,61.2651
11.090,70.4521
11.100,71.3345
11.110,64.6631
11.120,72.0585
11.130,69.1302
11.140,65.8066
11.150,64.1493
11.160,73.8997
11.170,67.7875
11.180,61.3593
11.190,64.7588
11.200,70.6787
11.210,71.6977
11.220,70.3586
11.230,75.8576
11.240,63.5884
11.250,66.9506
11.260,62.7859
11.270,67.7452
11.280,70.2969
11.290,76.2385
11.300,76.9831
11.310,71.0679
11.320,69.0049
11.330,64.2955
11.340,71.2677
11.350,68.9564
11.360,73.3752
11.370,65.2376
11.380,67.5536
11.390,76.0999
11.400,72.2543
11.410,69.4474
11.420,75.0669
11.430,74.3764
11.440,74.3006
11.450,72.9804
11.460,71.7254
11.470,77.3655
11.480,78.8722
11.490,71.3782
11.500,76.4087
11.510,81.6561
11.520,80.7810
11.530,78.1820
11.540,75.8873
11.550,70.5686
11.560,78.4608
11.570,73.2226
11.580,76.7762
11.590,72.0343
11.600,75.1517
11.610,70.8546
11.620,75.1559
11.630,73.7478
11.640,83.8721
11.650,79.8407
11.660,80.5386
11.670,78.7761
11.680,78.1878
11.690,79.2057
11.700,84.1498
11.710,79.0124
11.720,82.7767
11.730,74.3649
11.740,73.9709
11.750,73.2376
11.760,82.6870
11.770,77.7834
11.780,80.3221
11.790,85.9329
11.800,84.8605
11.810,82.6098
11.820,80.0889
11.830,81.9726
11.840,85.6886
11.850,82.3295
11.860,85.7222
11.870,81.1131
11.880,77.2279
11.890,83.7849
11.900,80.3539
11.910,77.2182
11.920,73.9147
11.930,77.6353
11.940,83.7369
11.950,82.3688
11.960,72.2652
11.970,83.9120
11.980,74.0509
11.990,82.9845
12.000,76.1543
12.010,69.8957
12.020,78.8729
12.030,76.1772
12.040,71.0976
12.050,72.2988
12.060,82.2683
12.070,76.0278
12.080,80.2208
12.090,71.0238
12.100,72.7751
12.110,79.1339
12.120,69.6289
12.130,76.7917
12.140,72.5628
12.150,78.1773
12.160,67.9714
12.170,70.6638
12.180,78.6611
12.190,73.5528
12.200,74.7074
12.210,70.1010
12.220,77.2598
12.230,66.5732
12.240,77.1079
12.250,69.3399
12.260,66.2471
12.270,63.8300
12.280,72.0137
12.290,74.8517
12.300,71.8634
12.310,71.3671
12.320,71.4709
12.330,67.9463
12.340,65.2025
12.350,75.6714
12.360,62.7174
12.370,74.2846
12.380,71.5338
12.390,71.3143
12.400,72.5465
12.410,63.7056
12.420,65.6724
12.430,69.5407
12.440,70.0704
12.450,63.2486
12.460,64.4978
12.470,62.6032
12.480,65.2169
12.490,64.9149
12.500,64.9496
12.510,67.2098
12.520,66.0589
12.530,69.9310
12.540,73.8072
12.550,61.7384
12.560,73.7533
12.570,63.0608
12.580,63.4246
12.590,73.3512
12.600,67.1004
12.610,75.3372
12.620,68.0577
12.630,71.7118
12.640,75.3595
12.650,67.3841
12.660,70.9371
12.670,72.3041
12.680,74.0023
12.690,69.2100
12.700,64.3332
12.710,75.1819
12.720,65.9476
12.730,64.8947
12.740,71.2833
12.750,74.5769
12.760,64.6870
12.770,65.4535
12.780,72.0763
12.790,75.8271
12.800,76.3960
12.810,67.5318
12.820,77.3467
12.830,74.3484
12.840,76.4439
12.850,80.1411
12.860,73.7935
12.870,76.5527
12.880,78.4098
12.890,68.4460
12.900,81.8859
12.910,73.1728
12.920,80.0942
12.930,81.2719
12.940,79.2377
12.950,76.3271
12.960,80.9091
12.970,73.6523
12.980,71.7736
12.990,74.0490
13.000,73.4569
13.010,75.5398
13.020,82.5421
13.030,73.6620
13.040,72.2701
13.050,82.4340
13.060,83.1009
13.070,74.1593
13.080,81.6765
13.090,77.2580
13.100,72.3699
13.110,75.0338
13.120,74.2156
13.130,85.1585
13.140,84.2617
13.150,74.0074
13.160,78.5331
13.170,75.6149
13.180,81.1573
13.190,78.0334
13.200,80.5817
13.210,76.2772
13.220,86.3405
13.230,74.5970
13.240,83.3471
13.250,79.4725
13.260,77.2688
13.270,72.7932
13.280,80.8323
13.290,77.1535
13.300,74.6064
13.310,80.5770
13.320,75.7014
13.330,80.5583
13.340,77.2341
13.350,71.7122
13.360,71.5635
13.370,79.9337
13.380,73.2951
13.390,71.0815
13.400,82.3139
13.410,76.0147
13.420,82.3737
13.430,82.0990
13.440,78.1007
13.450,81.6863
13.460,71.3739
13.470,72.3876
13.480,70.5769
13.490,76.2924
13.500,71.1686
13.510,73.9437
13.520,78.9987
13.530,69.5461
13.540,69.1668
13.550,78.3665
13.560,79.9204
13.570,79.1581
13.580,74.9754
13.590,71.9533
13.600,77.2700
13.610,75.7035
13.620,72.2445
13.630,69.5527
13.640,77.6470
13.650,76.8215
13.660,78.4293
13.670,67.6088
13.680,72.6266
13.690,72.1883
13.700,68.7442
13.710,76.1812
13.720,74.0131
13.730,75.1110
13.740,66.9142
13.750,71.5144
13.760,66.5696
13.770,67.2084
13.780,70.9940
13.790,65.0881
13.800,66.0359
13.810,64.3807
13.820,73.6623
13.830,64.3703
13.840,70.5247
13.850,67.4393
13.860,62.4755
13.870,75.5305
13.880,62.3677
13.890,73.0091
13.900,61.5735
13.910,65.4839
13.920,72.5627
13.930,68.3699
13.940,72.0295
13.950,69.6474
13.960,62.7015
13.970,63.3288
13.980,69.2122
13.990,73.2486
14.000,67.3065
14.010,64.1001
14.020,70.8503
14.030,71.7043
14.040,72.5148
14.050,66.6814
14.060,66.4280
14.070,71.8168
14.080,70.1011
14.090,63.5423
14.100,70.1614
14.110,75.6689
14.120,71.7939
14.130,67.6217
14.140,70.3786
14.150,65.9168
14.160,72.7571
14.170,72.4080
14.180,69.8442
14.190,70.6277
14.200,66.8502
14.210,76.7455
14.220,77.8143
14.230,70.7712
14.240,71.7163
14.250,68.6672
14.260,73.2921
14.270,73.4609
14.280,80.6738
14.290,70.6615
14.300,74.0847
14.310,77.2674
14.320,68.8607
14.330,80.5288
14.340,79.1399
14.350,69.0032
14.360,78.4770
14.370,77.5543
14.380,82.8931
14.390,76.6028
14.400,71.6101
14.410,78.8950
14.420,73.9174
14.430,74.6770
14.440,79.5134
14.450,83.3673
14.460,73.4808
14.470,74.2655
14.480,79.7745
14.490,81.7149
14.500,80.9308
14.510,77.2498
14.520,84.9043
14.530,80.4413
14.540,73.4263
14.550,72.4703
14.560,80.7205
14.570,77.2938
14.580,80.4964
14.590,82.7718
14.600,76.5463
14.610,80.7963
14.620,76.4479
14.630,86.3378
14.640,84.4022
14.650,73.9203
14.660,85.5401
14.670,77.4891
14.680,76.6072
14.690,74.0474
14.700,85.7612
14.710,81.6242
14.720,85.0008
14.730,78.9718
14.740,82.5581
14.750,86.1000
14.760,81.1743
14.770,81.4200
14.780,72.6165
14.790,81.2832
14.800,73.2455
14.810,72.8090
14.820,71.5944
14.830,72.7750
14.840,81.9998
14.850,84.0893
14.860,72.5324
14.870,81.9889
14.880,70.9729
14.890,78.9755
14.900,75.8527
14.910,70.0851
14.920,82.3464
14.930,75.6333
14.940,74.0712
14.950,76.2214
14.960,70.7171
14.970,81.0418
14.980,72.8685
14.990,73.4794
15.000,80.9187
15.010,74.8501
15.020,80.8453
15.030,73.9538
15.040,85.4853
15.050,81.6550
15.060,84.2045
15.070,77.7695
15.080,83.0406
15.090,91.4138
15.100,82.1914
15.110,81.1956
15.120,93.4534
15.130,86.3465
15.140,96.9344
15.150,88.3861
15.160,86.3214
15.170,100.0178
15.180,99.6105
15.190,97.0829
15.200,100.4037
15.210,97.3892
15.220,92.8690
15.230,96.2696
15.240,98.7939
15.250,108.8768
15.260,106.2886
15.270,99.3872
15.280,104.2591
15.290,108.7904
15.300,101.2002
15.310,107.1943
15.320,111.1022
15.330,113.9449
15.340,119.0889
15.350,119.4469
15.360,121.1627
15.370,121.5042
15.380,118.8079
15.390,112.9131
15.400,120.5107
15.410,119.4851
15.420,115.4869
15.430,123.6788
15.440,124.3353
15.450,123.4717
15.460,120.8886
15.470,120.6622
15.480,132.3948
15.490,123.0225
15.500,125.3039
15.510,129.2056
15.520,134.4315
15.530,139.3793
15.540,129.0445
15.550,141.9758
15.560,143.2122
15.570,137.4858
15.580,140.2396
15.590,133.7566
15.600,135.4964
15.610,148.1877
15.620,137.2660
15.630,145.1719
15.640,141.2662
15.650,141.7559
15.660,148.8897
15.670,142.6629
15.680,147.6550
15.690,149.6392
15.700,153.3229
15.710,154.8298
15.720,154.6361
15.730,156.8014
15.740,161.1242
15.750,153.0914
15.760,157.5592
15.770,162.0976
15.780,161.2822
15.790,167.8490
15.800,168.3536
15.810,161.6718
15.820,169.3194
15.830,167.3493
15.840,164.2087
15.850,163.4859
15.860,176.6397
15.870,171.1904
15.880,176.6971
15.890,178.2430
15.900,173.4899
15.910,174.9461
15.920,176.1329
15.930,185.3900
15.940,179.7017
15.950,184.5648
15.960,181.7874
15.970,189.4963
15.980,190.9700
15.990,181.7829
16.000,187.6639
16.010,193.0202
16.020,185.0985
16.030,190.1631
16.040,187.6569
16.050,180.5509
16.060,189.6282
16.070,185.4252
16.080,187.3930
16.090,180.2962
16.100,190.8419
16.110,190.7848
16.120,181.8709
16.130,183.9881
16.140,191.7061
16.150,181.7086
16.160,186.7493
16.170,190.5509
16.180,181.6149
16.190,186.9376
16.200,181.3116
16.210,183.7709
16.220,190.1897
16.230,181.9155
16.240,181.3330
16.250,180.2354
16.260,187.6574
16.270,193.3621
16.280,184.3515
16.290,190.2669
16.300,190.7145
16.310,192.4441
16.320,180.1972
16.330,184.3985
16.340,186.5745
16.350,180.3886
16.360,191.6229
16.370,182.1651
16.380,190.6728
16.390,183.5404
16.400,189.7483
16.410,191.0797
16.420,189.4344
16.430,184.0051
16.440,185.1269
16.450,189.5623
16.460,184.0413
16.470,189.5048
16.480,184.6549
16.490,186.9846
16.500,183.7476
16.510,184.5526
16.520,182.9844
16.530,192.6537
16.540,191.2022
16.550,186.1460
16.560,183.4148
16.570,189.0576
16.580,181.8461
16.590,192.9583
16.600,185.7461
16.610,190.5109
16.620,192.7265
16.630,186.6770
16.640,183.0280
16.650,183.4929
16.660,187.3972
16.670,190.5438
16.680,182.1868
16.690,185.7898
16.700,185.6587
16.710,187.2184
16.720,180.2673
16.730,190.3715
16.740,193.9582
16.750,183.6730
16.760,187.3736
16.770,180.3250
16.780,189.9070
16.790,186.4884
16.800,189.4902
16.810,183.0424
16.820,190.3286
16.830,187.2927
16.840,187.0171
16.850,186.3286
16.860,192.5057
16.870,180.8061
16.880,185.7331
16.890,191.0144
16.900,184.0978
16.910,194.0954
16.920,190.4399
16.930,186.5688
16.940,190.2553
16.950,191.9931
16.960,190.7532
16.970,190.6360
16.980,190.9817
16.990,184.9831
17.000,72.6399
17.010,72.3568
17.020,65.1483
17.030,65.2956
17.040,66.5993
17.050,79.2849
17.060,73.7108
17.070,77.5253
17.080,72.3049
17.090,69.6324
17.100,77.8777
17.110,68.8552
17.120,76.7288
17.130,74.6596
17.140,77.5683
17.150,73.3370
17.160,81.1711
17.170,73.1787
17.180,80.6087
17.190,77.7892
17.200,83.3905
17.210,75.4459
17.220,70.6030
17.230,83.4012
17.240,77.5707
17.250,73.5216
17.260,83.9120
17.270,75.7573
17.280,76.1746
17.290,77.6971
17.300,81.3128
17.310,80.3032
17.320,85.7919
17.330,78.9836
17.340,84.0299
17.350,76.2602
17.360,86.0012
17.370,74.5960
17.380,75.9748
17.390,73.5921
17.400,81.9828
17.410,76.8128
17.420,79.4661
17.430,83.0872
17.440,86.0495
17.450,81.8148
17.460,75.0358
17.470,78.1392
17.480,76.8135
17.490,85.1828
17.500,79.8936
17.510,76.3442
17.520,74.5204
17.530,84.6885
17.540,85.0889
17.550,80.2244
17.560,74.5097
17.570,79.8049
17.580,79.7077
17.590,83.4308
17.600,75.8367
17.610,82.4520
17.620,79.4873
17.630,80.8906
17.640,79.0171
17.650,74.5493
17.660,83.6043
17.670,79.2388
17.680,80.6461
17.690,75.8940
17.700,74.5495
17.710,77.8936
17.720,85.1066
17.730,72.4751
17.740,71.9548
17.750,80.5549
17.760,71.6153
17.770,75.5149
17.780,81.1810
17.790,71.4598
17.800,72.0093
17.810,79.0940
17.820,71.1124
17.830,73.0726
17.840,80.1220
17.850,77.4266
17.860,68.8205
17.870,77.1389
17.880,69.4327
17.890,67.8649
17.900,69.3669
17.910,73.8312
17.920,77.8091
17.930,76.5611
17.940,69.7881
17.950,74.8670
17.960,72.9568
17.970,78.0720
17.980,66.7157
17.990,73.7320
18.000,71.1044
18.010,70.3924
18.020,68.5962
18.030,67.3415
18.040,76.9565
18.050,77.2361
18.060,68.0065
18.070,75.2264
18.080,71.9513
18.090,67.3004
18.100,70.6682
18.110,77.1528
18.120,73.0475
18.130,66.7767
18.140,67.5461
18.150,68.5701
18.160,76.7959
18.170,68.9989
18.180,70.4611
18.190,67.2136
18.200,74.4494
18.210,69.1193
18.220,70.8486
18.230,64.0004
18.240,76.5555
18.250,65.1469
18.260,67.9500
18.270,67.7916
18.280,70.4272
18.290,71.5220
18.300,65.1814
18.310,71.2204
18.320,64.2857
18.330,69.6811
18.340,71.5358
18.350,65.9842
18.360,76.7809
18.370,65.1930
18.380,66.7109
18.390,76.7537
18.400,72.8333
18.410,71.7369
18.420,75.3379
18.430,71.1472
18.440,66.4246
18.450,67.4718
18.460,78.5084
18.470,78.7972
18.480,66.5962
18.490,70.9652
18.500,75.6373
18.510,73.0044
18.520,76.9802
18.530,78.3192
18.540,75.5539
18.550,77.8980
18.560,69.9352
18.570,77.3654
18.580,76.4925
18.590,77.6810
18.600,73.7674
18.610,72.8048
18.620,76.1937
18.630,80.7567
18.640,76.1446
18.650,79.1875
18.660,83.1921
18.670,80.1429
18.680,72.3487
18.690,74.4666
18.700,78.9406
18.710,75.6799
18.720,77.7060
18.730,76.8038
18.740,78.4996
18.750,85.7979
18.760,80.6067
18.770,79.8498
18.780,75.1322
18.790,86.6136
18.800,83.3864
18.810,75.0616
18.820,83.7773
18.830,86.9311
18.840,74.4761
18.850,77.8782
18.860,83.6014
18.870,79.6817
18.880,77.2002
18.890,80.2598
18.900,87.7586
18.910,85.1765
18.920,84.5533
18.930,87.7896
18.940,87.7038
18.950,84.3445
18.960,84.3204
18.970,84.0071
18.980,84.2898
18.990,80.0064
19.000,75.5509
19.010,85.9596
19.020,75.3568
19.030,74.5691
19.040,77.5445
19.050,84.0993
19.060,87.2413
19.070,83.8329
19.080,80.0281
19.090,75.2694
19.100,84.5873
19.110,75.0849
19.120,82.7994
19.130,79.2698
19.140,80.2868
19.150,85.3673
19.160,83.2714
19.170,71.8013
19.180,78.8594
19.190,82.8142
19.200,74.6796
19.210,73.8846
19.220,82.5653
19.230,80.5797
19.240,83.0461
19.250,77.2882
19.260,72.2927
19.270,76.1346
19.280,77.4323
19.290,80.4098
19.300,72.9659
19.310,78.7032
19.320,77.7004
19.330,74.6737
19.340,75.9823
19.350,69.2480
19.360,75.3740
19.370,71.3574
19.380,69.6031
19.390,72.8975
19.400,77.2582
19.410,72.5607
19.420,68.1177
19.430,75.2581
19.440,68.5671
19.450,75.8110
19.460,71.3944
19.470,73.6839
19.480,72.0092
19.490,67.8098
19.500,71.4434
19.510,68.2949
19.520,71.3297
19.530,71.8863
19.540,72.1118
19.550,73.9594
19.560,69.0162
19.570,68.4386
19.580,76.5422
19.590,74.1076
19.600,76.2511
19.610,65.2496
19.620,63.9981
19.630,67.8403
19.640,70.9185
19.650,69.4689
19.660,65.6735
19.670,76.4430
19.680,76.7186
19.690,71.7190
19.700,70.6392
19.710,63.5447
19.720,66.5275
19.730,70.8804
19.740,76.5140
19.750,71.6245
19.760,71.0098
19.770,68.5574
19.780,72.3925
19.790,69.2389
19.800,75.8469
19.810,72.4778
19.820,72.7824
19.830,73.4100
19.840,70.0083
19.850,66.2149
19.860,76.5905
19.870,68.4622
19.880,71.9247
19.890,67.0663
19.900,77.3258
19.910,71.1623
19.920,66.8698
19.930,77.7709
19.940,71.6324
19.950,79.6109
19.960,71.9761
19.970,72.1343
19.980,68.9810
19.990,76.0319
20.000,71.0355
20.010,69.6019
20.020,71.1860
20.030,70.2959
20.040,70.1306
20.050,76.9895
20.060,83.8686
20.070,79.4005
20.080,84.4610
20.090,75.3246
20.100,74.0900
20.110,82.9046
20.120,81.4347
20.130,81.9503
20.140,76.4952
20.150,79.0106
20.160,77.7593
20.170,85.4535
20.180,81.5862
20.190,77.4894
20.200,75.9438
20.210,87.0582
20.220,82.9782
20.230,81.9894
20.240,78.3444
20.250,82.6119
20.260,87.1812
20.270,86.8462
20.280,79.9901
20.290,83.7198
20.300,77.8461
20.310,75.1905
20.320,76.1828
20.330,79.7669
20.340,82.7762
20.350,82.6413
20.360,84.3392
20.370,84.4103
20.380,78.6563
20.390,78.3477
20.400,79.9261
20.410,85.5144
20.420,85.6098
20.430,78.5451
20.440,86.9830
20.450,79.4399
20.460,81.2065
20.470,86.8380
20.480,77.3506
20.490,86.7269
20.500,76.4654
20.510,79.5456
20.520,82.7729
20.530,86.2704
20.540,80.2892
20.550,83.7867
20.560,81.9541
20.570,76.2100
20.580,82.6961
20.590,80.7244
20.600,80.8657
20.610,78.3887
20.620,75.0233
20.630,71.8373
20.640,77.7914
20.650,81.6167
20.660,72.4144
20.670,77.1302
20.680,72.1376
20.690,74.7001
20.700,78.5658
20.710,76.3411
20.720,69.2351
20.730,76.9449
20.740,71.8664
20.750,69.2383
20.760,80.8321
20.770,68.8863
20.780,78.4409
20.790,68.7533
20.800,76.6177
20.810,67.1853
20.820,72.2631
20.830,70.6755
20.840,69.2088
20.850,66.3649
20.860,71.9850
20.870,65.7851
20.880,75.6196
20.890,69.2051
20.900,71.5334
20.910,69.4186
20.920,65.2204
20.930,77.6397
20.940,65.8061
20.950,65.9372
20.960,71.9784
20.970,64.6843
20.980,65.0236
20.990,65.7336
21.000,72.4100
21.010,74.1432
21.020,70.5283
21.030,69.4236
21.040,70.8212
21.050,73.2585
21.060,69.6787
21.070,73.2087
21.080,64.0671
21.090,73.0407
21.100,72.0190
21.110,71.3474
21.120,77.0987
21.130,77.3326
21.140,71.2015
21.150,67.2473
21.160,77.2236
21.170,71.9742
21.180,64.2281
21.190,77.5048
21.200,65.5317
21.210,74.9948
21.220,71.6708
21.230,69.4894
21.240,66.1884
21.250,67.0033
21.260,70.9108
21.270,68.2068
21.280,79.5995
21.290,67.6154
21.300,79.8761
21.310,71.2116
21.320,77.4020
21.330,76.8439
21.340,68.8641
21.350,71.7830
21.360,80.9078
21.370,75.0453
21.380,71.4210
21.390,76.6274
21.400,77.1998
21.410,72.8541
21.420,81.3580
21.430,69.1403
21.440,79.3081
21.450,77.4415
21.460,71.6546
21.470,79.0133
21.480,79.5692
21.490,71.7217
21.500,77.5316
21.510,83.7346
21.520,76.9617
21.530,78.3929
21.540,83.3557
21.550,78.3328
21.560,75.7676
21.570,77.9243
21.580,74.5713
21.590,85.4530
21.600,73.1061
21.610,74.4583
21.620,84.6233
21.630,80.7782
21.640,74.3027
21.650,77.9693
21.660,82.0726
21.670,74.3396
21.680,80.5453
21.690,83.2882
21.700,80.2824
21.710,80.7401
21.720,81.1986
21.730,85.7761
21.740,84.9779
21.750,79.2138
21.760,74.8473
21.770,82.1629
21.780,77.3332
21.790,75.4743
21.800,84.0621
21.810,83.9789
21.820,88.3630
21.830,81.1816
21.840,79.9405
21.850,77.0461
21.860,74.8447
21.870,82.4757
21.880,78.5446
21.890,75.2436
21.900,86.2118
21.910,76.7862
21.920,84.4299
21.930,77.1970
21.940,74.2536
21.950,81.7585
21.960,84.9106
21.970,79.2077
21.980,85.2708
21.990,77.8900
22.000,76.2684
22.010,85.0067
22.020,79.7221
22.030,78.6034
22.040,73.4805
22.050,73.0575
22.060,73.8854
22.070,83.2677
22.080,76.9467
22.090,82.8584
22.100,71.3989
22.110,71.0218
22.120,78.6236
22.130,73.6572
22.140,82.0576
22.150,81.9261
22.160,71.4766
22.170,80.2465
22.180,71.2471
22.190,76.8739
22.200,69.1854
22.210,74.2954
22.220,70.8492
22.230,71.4181
22.240,67.6072
22.250,68.1103
22.260,68.2086
22.270,67.9509
22.280,71.3443
22.290,76.6304
22.300,74.5870
22.310,71.3984
22.320,75.3984
22.330,68.1489
22.340,76.3930
22.350,76.9056
22.360,77.1831
22.370,77.1825
22.380,76.3855
22.390,70.0326
22.400,64.4233
22.410,65.3225
22.420,64.3456
22.430,69.6693
22.440,67.0411
22.450,68.1893
22.460,70.1019
22.470,69.1080
22.480,67.1294
22.490,64.5448
22.500,66.9174
22.510,65.8159
22.520,77.7096
22.530,66.7334
22.540,75.2203
22.550,65.7862
22.560,71.8468
22.570,73.1600
22.580,76.7495
22.590,67.3287
22.600,77.0746
22.610,77.9797
22.620,72.1571
22.630,66.4853
22.640,77.9319
22.650,72.7404
22.660,78.9366
22.670,75.1876
22.680,66.7659
22.690,79.1200
22.700,76.4210
22.710,76.4891
22.720,69.8511
22.730,73.2946
22.740,78.8760
22.750,76.9532
22.760,70.7627
22.770,79.3638
22.780,76.8458
22.790,71.2053
22.800,70.6772
22.810,72.7973
22.820,74.0906
22.830,74.3670
22.840,69.1057
22.850,77.4184
22.860,71.3717
22.870,79.3599
22.880,79.1212
22.890,79.4908
22.900,74.0722
22.910,71.1117
22.920,76.5836
22.930,85.0714
22.940,75.6309
22.950,72.8704
22.960,85.0294
22.970,83.7635
22.980,74.0132
22.990,85.9851
23.000,86.1855
23.010,74.8109
23.020,81.6362
23.030,76.7087
23.040,83.3433
23.050,82.5346
23.060,81.5258
23.070,88.1083
23.080,87.3486
23.090,86.9015
23.100,74.9443
23.110,80.6860
23.120,77.9314
23.130,84.6130
23.140,76.7755
23.150,77.8858
23.160,83.0032
23.170,75.5509
23.180,85.5056
23.190,83.3991
23.200,81.4681
23.210,79.4925
23.220,81.6752
23.230,76.4613
23.240,82.3457
23.250,83.9254
23.260,88.2837
23.270,85.9377
23.280,86.1330
23.290,83.8217
23.300,74.8676
23.310,76.9606
23.320,78.4100
23.330,82.1381
23.340,82.4392
23.350,80.1835
23.360,83.2767
23.370,74.0832
23.380,78.6152
23.390,78.3519
23.400,77.6435
23.410,87.2316
23.420,84.0944
23.430,81.4739
23.440,85.6926
23.450,76.8196
23.460,77.4105
23.470,81.5920
23.480,78.9701
23.490,83.2164
23.500,74.6508
23.510,83.2245
23.520,83.4747
23.530,84.6827
23.540,71.4369
23.550,81.8684
23.560,78.4126
23.570,75.1784
23.580,73.7770
23.590,80.8280
23.600,76.6378
23.610,71.7679
23.620,75.5687
23.630,69.1583
23.640,74.1877
23.650,78.1003
23.660,74.8889
23.670,77.8298
23.680,74.8104
23.690,69.4582
23.700,78.0076
23.710,74.4297
23.720,74.3773
23.730,77.8690
23.740,79.3846
23.750,67.0072
23.760,68.3537
23.770,70.5726
23.780,75.2916
23.790,70.9110
23.800,65.7510
23.810,66.7677
23.820,66.0971
23.830,75.0952
23.840,70.1362
23.850,65.1525
23.860,65.3189
23.870,76.0936
23.880,75.2426
23.890,70.5016
23.900,70.2435
23.910,67.6566
23.920,65.0721
23.930,71.5324
23.940,64.3541
23.950,68.2115
23.960,66.7900
23.970,73.4370
23.980,70.8310
23.990,66.2009
24.000,75.0571
24.010,71.9206
24.020,74.2897
24.030,74.6731
24.040,71.5575
24.050,73.0762
24.060,77.4020
24.070,65.2647
24.080,75.4952
24.090,74.0986
24.100,68.6297
24.110,77.0151
24.120,69.6435
24.130,72.8635
24.140,69.3571
24.150,70.0781
24.160,79.8944
24.170,76.6000
24.180,68.1486
24.190,74.1985
24.200,75.6988
24.210,77.3391
24.220,78.1074
24.230,69.8880
24.240,80.0515
24.250,77.3418
24.260,81.2884
24.270,82.6411
24.280,70.6637
24.290,75.4013
24.300,83.5199
24.310,80.8842
24.320,75.8199
24.330,84.4690
24.340,75.3959
24.350,73.7996
24.360,75.7307
24.370,77.0480
24.380,78.0170
24.390,75.8474
24.400,80.4986
24.410,78.4186
24.420,74.6844
24.430,74.5477
24.440,85.2407
24.450,79.1186
24.460,77.0804
24.470,84.6333
24.480,80.8051
24.490,83.4387
24.500,76.6157
24.510,86.6125
24.520,81.3961
24.530,88.0223
24.540,75.9445
24.550,88.0376
24.560,77.8680
24.570,84.5375
24.580,87.7398
24.590,86.4142
24.600,76.3426
24.610,77.8905
24.620,80.4179
24.630,87.9911
24.640,82.2801
24.650,78.5835
24.660,78.6837
24.670,78.9598
24.680,82.3848
24.690,86.2816
24.700,80.2090
24.710,85.3580
24.720,76.9975
24.730,76.6210
24.740,82.1193
24.750,75.6717
24.760,81.5088
24.770,76.9275
24.780,77.5479
24.790,77.4219
24.800,83.8763
24.810,85.7390
24.820,78.8086
24.830,76.1107
24.840,84.4278
24.850,77.0630
24.860,75.4903
24.870,81.2873
24.880,78.7070
24.890,79.5386
24.900,84.5543
24.910,77.1174
24.920,83.6774
24.930,79.3290
24.940,84.1837
24.950,73.5671
24.960,84.0032
24.970,84.7076
24.980,80.6566
24.990,80.6259
25.000,71.2960
25.010,81.0783
25.020,82.4050
25.030,79.0770
25.040,70.2898
25.050,82.3721
25.060,69.3364
25.070,75.5747
25.080,70.5325
25.090,75.6327
25.100,71.7100
25.110,75.4715
25.120,71.6849
25.130,73.8161
25.140,69.8742
25.150,72.5820
25.160,71.8266
25.170,67.0409
25.180,76.1426
25.190,74.5544
25.200,72.7050
25.210,75.5020
25.220,71.9758
25.230,74.2280
25.240,75.9169
25.250,76.4266
25.260,68.9451
25.270,75.1096
25.280,68.6817
25.290,70.0247
25.300,76.8007
25.310,77.6170
25.320,69.8568
25.330,69.4289
25.340,69.8684
25.350,67.8398
25.360,72.4964
25.370,69.5061
25.380,70.4754
25.390,74.4041
25.400,72.3401
25.410,71.4925
25.420,65.1643
25.430,74.6669
25.440,73.9239
25.450,68.6628
25.460,69.8311
25.470,65.6676
25.480,79.3570
25.490,70.9524
25.500,76.8451
25.510,76.4123
25.520,78.5510
25.530,79.2885
25.540,75.3755
25.550,66.5782
25.560,78.9187
25.570,76.1836
25.580,71.3421
25.590,73.9325
25.600,75.2984
25.610,70.5478
25.620,77.3538
25.630,73.8203
25.640,76.3199
25.650,79.8022
25.660,71.8176
25.670,77.9019
25.680,78.3646
25.690,71.5307
25.700,75.2882
25.710,79.0149
25.720,82.4462
25.730,82.9679
25.740,84.8581
25.750,71.8471
25.760,84.2847
25.770,85.3237
25.780,81.2800
25.790,75.4909
25.800,72.7949
25.810,73.8325
25.820,79.5576
25.830,74.4629
25.840,86.8495
25.850,86.4572
25.860,78.3096
25.870,75.5442
25.880,85.7505
25.890,80.3270
25.900,87.2749
25.910,76.8409
25.920,85.3766
25.930,79.5985
25.940,81.1878
25.950,80.6733
25.960,77.8828
25.970,75.8116
25.980,85.7774
25.990,79.1716
26.000,85.2639
26.010,77.1375
26.020,80.2614
26.030,85.8154
26.040,81.0809
26.050,83.6409
26.060,89.1549
26.070,81.0020
26.080,83.9854
26.090,82.8675
26.100,77.4444
26.110,82.6881
26.120,86.6094
26.130,89.7017
26.140,81.2679
26.150,88.9779
26.160,86.7593
26.170,87.2941
26.180,86.4228
26.190,87.6734
26.200,80.8007
26.210,82.7781
26.220,75.3482
26.230,83.6785
26.240,76.6802
26.250,85.0233
26.260,80.3656
26.270,77.2488
26.280,86.7434
26.290,74.1704
26.300,83.7570
26.310,78.1408
26.320,79.4802
26.330,80.8478
26.340,85.9821
26.350,81.8598
26.360,75.8843
26.370,80.4985
26.380,79.7983
26.390,83.7611
26.400,72.8728
26.410,70.9053
26.420,77.6583
26.430,74.5480
26.440,79.9009
26.450,78.5853
26.460,76.6099
26.470,74.8195
26.480,78.3358
26.490,75.4688
26.500,79.8184
26.510,74.4201
26.520,82.2842
26.530,79.9812
26.540,68.2890
26.550,77.8262
26.560,73.3387
26.570,69.2807
26.580,79.6612
26.590,78.0170
26.600,69.6910
26.610,72.3850
26.620,79.7121
26.630,77.6122
26.640,75.0352
26.650,72.9198
26.660,74.6947
26.670,75.7683
26.680,77.4534
26.690,73.8966
26.700,71.8925
26.710,69.1147
26.720,77.9655
26.730,68.4179
26.740,68.8496
26.750,68.4900
26.760,76.4830
26.770,67.3012
26.780,73.4363
26.790,65.4246
26.800,69.7195
26.810,68.3011
26.820,68.4578
26.830,75.4117
26.840,68.4122
26.850,76.1469
26.860,77.6303
26.870,76.4873
26.880,76.1596
26.890,79.3229
26.900,73.8695
26.910,66.9326
26.920,68.6253
26.930,68.6565
26.940,68.4609
26.950,70.6290
26.960,74.6617
26.970,76.2919
26.980,74.6512
26.990,74.2933
27.000,80.3751
27.010,69.0391
27.020,68.7848
27.030,68.0393
27.040,73.7576
27.050,69.8144
27.060,72.0808
27.070,71.7195
27.080,81.5103
27.090,79.5900
27.100,76.5989
27.110,75.5832
27.120,83.8990
27.130,71.0890
27.140,81.2887
27.150,80.0425
27.160,83.2591
27.170,83.0286
27.180,81.9027
27.190,76.8332
27.200,74.4076
27.210,74.2914
27.220,77.3011
27.230,76.1163
27.240,83.9751
27.250,76.2112
27.260,80.3375
27.270,74.8112
27.280,78.0966
27.290,75.9960
27.300,81.6740
27.310,85.1994
27.320,83.0068
27.330,81.5915
27.340,76.6488
27.350,88.0869
27.360,88.7512
27.370,85.2233
27.380,87.6865
27.390,78.3947
27.400,79.5849
27.410,87.9595
27.420,82.6814
27.430,76.3705
27.440,88.5578
27.450,88.0065
27.460,86.4245
27.470,79.1881
27.480,86.3686
27.490,81.2426
27.500,76.9832
27.510,78.4531
27.520,84.0965
27.530,81.6978
27.540,81.1815
27.550,84.6358
27.560,87.4139
27.570,85.5160
27.580,88.0044
27.590,79.2531
27.600,87.8151
27.610,82.1710
27.620,80.1785
27.630,80.0907
27.640,79.6443
27.650,87.4144
27.660,86.6595
27.670,75.7107
27.680,78.2595
27.690,79.7591
27.700,87.0997
27.710,76.0549
27.720,82.1698
27.730,79.9635
27.740,74.8476
27.750,79.4454
27.760,83.0701
27.770,74.7455
27.780,80.5868
27.790,77.5996
27.800,72.5981
27.810,84.7835
27.820,78.6669
27.830,77.4810
27.840,79.7749
27.850,77.2914
27.860,81.9108
27.870,82.8945
27.880,82.0549
27.890,72.2595
27.900,83.4701
27.910,80.4978
27.920,72.9396
27.930,70.9856
27.940,70.7556
27.950,76.2661
27.960,77.8976
27.970,70.2476
27.980,81.7120
27.990,70.7659
28.000,71.8406
28.010,71.7750
28.020,67.1522
28.030,78.4012
28.040,76.0941
28.050,78.8980
28.060,72.3283
28.070,79.8770
28.080,69.2272
28.090,78.0100
28.100,73.7550
28.110,72.1629
28.120,78.6530
28.130,78.0721
28.140,76.4630
28.150,67.9651
28.160,74.2879
28.170,74.9064
28.180,73.6575
28.190,78.3673
28.200,75.4161
28.210,75.5288
28.220,74.3046
28.230,71.4772
28.240,66.5873
28.250,67.8596
28.260,67.2732
28.270,71.5167
28.280,72.9926
28.290,69.4774
28.300,70.5404
28.310,77.7202
28.320,76.2583
28.330,73.3642
28.340,75.4840
28.350,77.1973
28.360,76.8434
28.370,69.1867
28.380,75.3845
28.390,69.6789
28.400,67.8578
28.410,69.6671
28.420,76.4313
28.430,78.1914
28.440,76.3467
28.450,76.8789
28.460,75.7421
28.470,71.6746
28.480,78.3419
28.490,82.6969
28.500,79.2296
28.510,74.0614
28.520,76.3830
28.530,78.7034
28.540,81.5014
28.550,74.9900
28.560,76.6847
28.570,75.6400
28.580,76.7266
28.590,83.9759
28.600,82.0732
28.610,72.0388
28.620,83.6803
28.630,78.1088
28.640,77.0674
28.650,83.0661
28.660,86.0973
28.670,77.5463
28.680,74.8778
28.690,85.5613
28.700,84.4193
28.710,87.5379
28.720,79.3944
28.730,83.1108
28.740,85.8511
28.750,77.7955
28.760,84.6684
28.770,89.0250
28.780,87.0608
28.790,87.9916
28.800,77.6174
28.810,84.3271
28.820,87.0956
28.830,79.6613
28.840,82.5141
28.850,79.1422
28.860,78.1323
28.870,82.8909
28.880,89.0837
28.890,77.6500
28.900,89.9527
28.910,90.5869
28.920,82.1117
28.930,83.3451
28.940,78.8142
28.950,78.9581
28.960,85.8051
28.970,80.6893
28.980,77.4104
28.990,84.4901
29.000,88.7093
29.010,87.9934
29.020,79.8660
29.030,76.8703
29.040,88.8843
29.050,83.4278
29.060,88.1662
29.070,83.1723
29.080,84.0307
29.090,80.8936
29.100,86.6872
29.110,79.9873
29.120,85.6236
29.130,87.5971
29.140,84.0348
29.150,82.9268
29.160,78.1782
29.170,79.8624
29.180,74.5858
29.190,77.4297
29.200,82.9804
29.210,80.6892
29.220,85.5521
29.230,80.7845
29.240,81.4299
29.250,85.7783
29.260,73.0228
29.270,74.4898
29.280,79.8036
29.290,82.7271
29.300,77.0132
29.310,80.7738
29.320,72.3442
29.330,83.0928
29.340,72.5848
29.350,71.7287
29.360,78.6553
29.370,71.7011
29.380,71.0931
29.390,81.1261
29.400,81.6026
29.410,79.1851
29.420,72.2086
29.430,80.7138
29.440,70.8975
29.450,81.4860
29.460,68.4361
29.470,72.9963
29.480,67.7069
29.490,73.5581
29.500,79.4511
29.510,74.7687
29.520,67.4932
29.530,78.6146
29.540,71.7467
29.550,74.7025
29.560,67.3204
29.570,72.9852
29.580,73.4473
29.590,75.3531
29.600,76.8459
29.610,71.9062
29.620,76.9475
29.630,69.0972
29.640,66.2312
29.650,73.3475
29.660,69.8817
29.670,69.0008
29.680,78.5804
29.690,65.9907
29.700,66.1138
29.710,69.3277
29.720,79.4724
29.730,71.1557
29.740,74.8818
29.750,66.3495
29.760,71.8488
29.770,72.7457
29.780,73.1384
29.790,67.9083
29.800,77.7394
29.810,75.4574
29.820,77.7525
29.830,71.6397
29.840,79.5931
29.850,77.4951
29.860,80.9172
29.870,82.1750
29.880,71.4772
29.890,77.8966
29.900,82.0380
29.910,82.5058
29.920,74.5762
29.930,82.5738
29.940,75.5524
29.950,73.6721
29.960,80.5047
29.970,81.5960
29.980,72.0881
29.990,80.9160
30.000,77.6439
30.010,77.7337
30.020,75.3335
30.030,88.8750
30.040,77.4937
30.050,90.4917
30.060,92.5187
30.070,93.6269
30.080,87.1988
30.090,95.9002
30.100,89.0428
30.110,90.4985
30.120,87.2847
30.130,93.3372
30.140,94.0897
30.150,100.4324
30.160,93.9720
30.170,95.9050
30.180,94.2929
30.190,105.5393
30.200,107.5100
30.210,103.5473
30.220,105.1151
30.230,104.2042
30.240,106.9623
30.250,109.9882
30.260,111.0197
30.270,112.9734
30.280,114.0810
30.290,114.3110
30.300,114.7183
30.310,115.1102
30.320,119.8421
30.330,122.5921
30.340,122.3730
30.350,119.0728
30.360,119.3531
30.370,120.3935
30.380,124.5464
30.390,118.5303
30.400,125.9522
30.410,129.1555
30.420,126.5416
30.430,131.7189
30.440,126.0288
30.450,138.4697
30.460,136.6513
30.470,131.5058
30.480,138.7143
30.490,139.3518
30.500,141.8700
30.510,131.9477
30.520,138.4855
30.530,144.8361
30.540,135.5866
30.550,138.7770
30.560,149.4828
30.570,148.5812
30.580,150.4844
30.590,146.8837
30.600,143.3225
30.610,149.3542
30.620,145.7945
30.630,149.1443
30.640,153.0830
30.650,160.1101
30.660,156.2444
30.670,159.3451
30.680,158.3498
30.690,158.4439
30.700,162.5137
30.710,160.8766
30.720,156.5297
30.730,169.8703
30.740,164.7127
30.750,160.3522
30.760,173.5941
30.770,165.0942
30.780,167.7388
30.790,177.2746
30.800,169.1281
30.810,168.5389
30.820,182.3013
30.830,169.6191
30.840,177.8980
30.850,180.4990
30.860,181.0362
30.870,175.6291
30.880,187.6381
30.890,184.1292
30.900,182.6842
30.910,185.2328
30.920,189.1136
30.930,195.3071
30.940,193.4767
30.950,185.4899
30.960,186.3118
30.970,189.1958
30.980,191.9248
30.990,190.1825
31.000,203.3546
31.010,195.8998
31.020,196.4673
31.030,197.4953
31.040,191.4052
31.050,190.1808
31.060,198.4097
31.070,191.7064
31.080,197.5432
31.090,202.4245
31.100,198.3024
31.110,202.2859
31.120,192.1738
31.130,196.8454
31.140,190.6161
31.150,191.6382
31.160,199.6963
31.170,190.4169
31.180,198.7913
31.190,203.1358
31.200,199.4909
31.210,197.2919
31.220,200.3921
31.230,203.3290
31.240,195.3313
31.250,197.3614
31.260,191.7979
31.270,202.9044
31.280,197.4111
31.290,201.5084
31.300,201.9941
31.310,191.2477
31.320,195.3992
31.330,200.7789
31.340,193.4290
31.350,190.9714
31.360,195.3931
31.370,195.6452
31.380,192.9492
31.390,198.5736
31.400,197.8196
31.410,190.4993
31.420,197.1531
31.430,203.5775
31.440,190.6456
31.450,193.4306
31.460,196.7371
31.470,195.8239
31.480,190.5819
31.490,203.7524
31.500,197.3456
31.510,203.3137
31.520,202.3618
31.530,191.3353
31.540,196.8616
31.550,191.5028
31.560,200.5724
31.570,198.2860
31.580,200.7480
31.590,193.1125
31.600,193.0657
31.610,202.1440
31.620,200.6154
31.630,196.8174
31.640,203.6105
31.650,199.2729
31.660,191.6031
31.670,195.2617
31.680,198.0549
31.690,203.7109
31.700,191.2445
31.710,197.4538
31.720,199.3752
31.730,196.2607
31.740,196.1701
31.750,204.0019
31.760,196.7129
31.770,196.4982
31.780,201.4116
31.790,193.6131
31.800,192.2868
31.810,191.7213
31.820,199.1743
31.830,201.0443
31.840,190.4379
31.850,200.3133
31.860,195.3497
31.870,191.1769
31.880,202.1874
31.890,190.3389
31.900,197.4232
31.910,197.1973
31.920,192.6520
31.930,192.8665
31.940,196.4299
31.950,196.7030
31.960,193.9789
31.970,191.2050
31.980,192.7567
31.990,198.3904
32.000,76.1704
32.010,78.6875
32.020,85.3226
32.030,81.0833
32.040,76.4881
32.050,79.5726
32.060,85.6111
32.070,79.5501
32.080,87.2650
32.090,86.3794
32.100,86.7418
32.110,79.3485
32.120,82.4900
32.130,81.1515
32.140,80.2738
32.150,76.3777
32.160,77.6681
32.170,72.9680
32.180,74.2095
32.190,71.2503
32.200,79.7423
32.210,78.9249
32.220,71.5436
32.230,81.8846
32.240,71.5731
32.250,79.9824
32.260,76.3797
32.270,69.5280
32.280,74.2027
32.290,78.1764
32.300,75.8773
32.310,76.2286
32.320,79.8516
32.330,75.3565
32.340,79.7984
32.350,80.6909
32.360,78.9836
32.370,72.7752
32.380,76.4665
32.390,77.7625
32.400,73.0775
32.410,72.6088
32.420,67.5399
32.430,73.6503
32.440,78.4838
32.450,75.3191
32.460,70.8058
32.470,79.2826
32.480,69.8109
32.490,79.5238
32.500,74.0005
32.510,69.4011
32.520,76.4069
32.530,77.5671
32.540,76.0909
32.550,80.6149
32.560,77.4310
32.570,75.0873
32.580,80.4906
32.590,75.8954
32.600,80.5085
32.610,77.7783
32.620,76.4136
32.630,70.7651
32.640,79.6782
32.650,68.9852
32.660,77.2404
32.670,79.8911
32.680,76.3156
32.690,77.9171
32.700,81.5844
32.710,69.3347
32.720,77.4404
32.730,77.8571
32.740,74.0755
32.750,77.2865
32.760,71.2955
32.770,75.6383
32.780,80.1401
32.790,74.3928
32.800,80.2024
32.810,73.9276
32.820,78.1009
32.830,84.3588
32.840,74.3782
32.850,77.4145
32.860,84.5645
32.870,82.8389
32.880,85.4436
32.890,84.3481
32.900,77.3584
32.910,84.0486
32.920,78.0238
32.930,83.6080
32.940,76.3818
32.950,77.7565
32.960,76.6453
32.970,80.8625
32.980,76.0115
32.990,76.8673
33.000,79.1535
33.010,81.1164
33.020,85.9929
33.030,82.0789
33.040,89.2858
33.050,89.4881
33.060,79.6238
33.070,89.5256
33.080,80.8013
33.090,88.7056
33.100,81.0608
33.110,77.9813
33.120,87.0084
33.130,84.1963
33.140,88.4696
33.150,85.8846
33.160,91.1978
33.170,83.7900
33.180,79.7591
33.190,89.9580
33.200,87.9103
33.210,84.5766
33.220,90.6003
33.230,91.2648
33.240,89.3768
33.250,88.5013
33.260,78.3538
33.270,87.1457
33.280,84.2080
33.290,86.6925
33.300,78.3253
33.310,83.6174
33.320,83.8654
33.330,79.5647
33.340,86.5031
33.350,78.7344
33.360,87.8494
33.370,82.0864
33.380,80.4244
33.390,80.7946
33.400,83.8840
33.410,81.5337
33.420,75.8972
33.430,83.6675
33.440,76.6106
33.450,88.7745
33.460,80.7882
33.470,76.5133
33.480,87.9558
33.490,80.8521
33.500,76.8509
33.510,77.1914
33.520,81.3329
33.530,82.6945
33.540,82.4728
33.550,76.8664
33.560,74.6131
33.570,84.5367
33.580,85.2868
33.590,72.8651
33.600,80.4107
33.610,73.2437
33.620,75.6238
33.630,83.3024
33.640,83.5196
33.650,72.9850
33.660,79.1728
33.670,75.5120
33.680,79.7135
33.690,73.5912
33.700,71.6785
33.710,77.7692
33.720,75.8904
33.730,78.8456
33.740,75.5467
33.750,77.9554
33.760,80.1671
33.770,79.4064
33.780,73.6126
33.790,76.4935
33.800,74.6373
33.810,77.8589
33.820,77.8998
33.830,76.4776
33.840,76.5260
33.850,78.2116
33.860,80.2334
33.870,80.2644
33.880,74.1027
33.890,71.1120
33.900,78.3781
33.910,71.3819
33.920,77.4841
33.930,70.5347
33.940,72.4083
33.950,73.8404
33.960,77.9269
33.970,79.7800
33.980,78.1392
33.990,77.3225
34.000,72.5587
34.010,81.1628
34.020,73.1215
34.030,73.3611
34.040,75.2018
34.050,80.5115
34.060,79.8580
34.070,78.5537
34.080,71.7538
34.090,69.4522
34.100,74.6081
34.110,79.7872
34.120,81.9080
34.130,70.8474
34.140,76.4267
34.150,82.3214
34.160,70.8078
34.170,81.6704
34.180,77.9484
34.190,70.2770
34.200,74.9600
34.210,72.6778
34.220,71.7072
34.230,79.9060
34.240,75.6095
34.250,72.4884
34.260,80.6157
34.270,77.6106
34.280,82.7247
34.290,82.9521
34.300,81.0066
34.310,80.8016
34.320,85.8894
34.330,87.5156
34.340,78.5152
34.350,84.0322
34.360,86.7359
34.370,79.4922
34.380,88.4773
34.390,83.2739
34.400,79.5322
34.410,80.4823
34.420,76.0302
34.430,84.2899
34.440,85.7393
34.450,81.0097
34.460,87.9434
34.470,90.0924
34.480,89.6221
34.490,76.9785
34.500,90.5412
34.510,90.5084
34.520,79.6243
34.530,88.5006
34.540,81.8050
34.550,84.0836
34.560,88.6475
34.570,84.5746
34.580,80.8732
34.590,81.9104
34.600,81.2523
34.610,91.6034
34.620,82.1832
34.630,86.0577
34.640,78.4394
34.650,91.2255
34.660,88.5955
34.670,85.7561
34.680,84.2357
34.690,89.4737
34.700,86.0947
34.710,82.5644
34.720,78.6426
34.730,80.6743
34.740,82.4242
34.750,84.9653
34.760,81.0403
34.770,83.8350
34.780,83.9613
34.790,82.5554
34.800,81.5355
34.810,82.8298
34.820,80.7456
34.830,82.5988
34.840,89.1432
34.850,82.0867
34.860,80.0327
34.870,81.2407
34.880,75.5984
34.890,85.5987
34.900,78.5110
34.910,88.6633
34.920,81.4004
34.930,75.8274
34.940,79.0592
34.950,78.6888
34.960,80.0179
34.970,85.6887
34.980,75.3029
34.990,85.8484
35.000,83.5347
35.010,83.9947
35.020,77.2363
35.030,73.0374
35.040,72.4880
35.050,79.0586
35.060,78.0506
35.070,79.2178
35.080,76.8758
35.090,70.7779
35.100,77.0796
35.110,73.1268
35.120,77.4403
35.130,70.1117
35.140,70.8392
35.150,70.7892
35.160,69.2140
35.170,69.7457
35.180,82.2525
35.190,80.6519
35.200,78.0703
35.210,77.9759
35.220,78.2793
35.230,77.2720
35.240,74.4702
35.250,69.0135
35.260,69.0946
35.270,69.9201
35.280,78.0138
35.290,79.7661
35.300,73.2555
35.310,75.0530
35.320,77.7838
35.330,74.4040
35.340,81.2015
35.350,77.6897
35.360,74.3499
35.370,79.4823
35.380,80.3690
35.390,71.1385
35.400,78.6558
35.410,72.4059
35.420,68.3019
35.430,69.1589
35.440,74.4545
35.450,77.2088
35.460,69.5900
35.470,70.9319
35.480,73.3257
35.490,70.8639
35.500,70.9776
35.510,74.2560
35.520,73.5352
35.530,81.4302
35.540,69.4918
35.550,82.2349
35.560,70.6310
35.570,72.4921
35.580,83.0796
35.590,73.1051
35.600,84.1141
35.610,74.3310
35.620,73.3973
35.630,71.4043
35.640,72.1124
35.650,71.7025
35.660,79.8287
35.670,82.9630
35.680,79.9225
35.690,81.1479
35.700,81.4939
35.710,75.1998
35.720,76.6736
35.730,78.4954
35.740,74.4559
35.750,86.8881
35.760,74.3532
35.770,75.3590
35.780,76.7050
35.790,79.0048
35.800,88.6458
35.810,85.8450
35.820,84.1895
35.830,77.6589
35.840,81.0565
35.850,78.9164
35.860,83.6948
35.870,89.0631
35.880,81.0047
35.890,83.3825
35.900,77.6354
35.910,86.1306
35.920,88.7487
35.930,84.7738
35.940,78.7559
35.950,87.3980
35.960,84.6818
35.970,81.2276
35.980,81.0453
35.990,90.3374
36.000,87.7043
36.010,92.4571
36.020,88.9734
36.030,88.9330
36.040,83.5805
36.050,87.3834
36.060,91.2712
36.070,83.7131
36.080,90.5145
36.090,83.8841
36.100,90.1061
36.110,81.4804
36.120,91.6026
36.130,81.9914
36.140,87.3693
36.150,92.0463
36.160,87.3670
36.170,87.5786
36.180,82.4596
36.190,78.6190
36.200,81.1459
36.210,90.6740
36.220,80.3412
36.230,83.5593
36.240,90.7928
36.250,90.8692
36.260,85.6015
36.270,83.9896
36.280,84.6223
36.290,85.5989
36.300,84.6955
36.310,82.5690
36.320,78.3085
36.330,89.0333
36.340,88.4598
36.350,79.6781
36.360,86.2722
36.370,83.3573
36.380,85.2854
36.390,76.5167
36.400,77.1679
36.410,77.1001
36.420,76.4379
36.430,75.5734
36.440,74.0068
36.450,72.7597
36.460,81.1053
36.470,79.6137
36.480,73.2900
36.490,81.6544
36.500,72.7365
36.510,78.1191
36.520,84.0022
36.530,75.0911
36.540,70.5754
36.550,83.3663
36.560,73.9632
36.570,70.6012
36.580,71.7382
36.590,72.2027
36.600,80.9623
36.610,78.4311
36.620,69.3984
36.630,71.1568
36.640,76.0352
36.650,72.6054
36.660,68.6119
36.670,78.4641
36.680,74.4027
36.690,77.1120
36.700,70.3778
36.710,81.0515
36.720,80.2940
36.730,78.8253
36.740,77.6359
36.750,80.3519
36.760,81.6243
36.770,68.9671
36.780,74.8423
36.790,80.5439
36.800,70.3236
36.810,75.3937
36.820,80.6479
36.830,71.4700
36.840,80.4918
36.850,70.3927
36.860,68.5637
36.870,78.4906
36.880,81.5495
36.890,78.1625
36.900,81.2563
36.910,71.4767
36.920,82.1344
36.930,74.7819
36.940,80.5019
36.950,79.1123
36.960,81.5448
36.970,74.9134
36.980,71.5934
36.990,75.0842
37.000,77.8637
37.010,76.7523
37.020,77.6509
37.030,77.9588
37.040,74.4401
37.050,75.7680
37.060,78.8430
37.070,84.6964
37.080,81.9124
37.090,75.7604
37.100,79.8054
37.110,77.0642
37.120,86.1734
37.130,79.0387
37.140,74.0892
37.150,87.2977
37.160,76.1200
37.170,77.4580
37.180,80.9124
37.190,83.8174
37.200,79.4416
37.210,82.8749
37.220,81.8692
37.230,84.1299
37.240,78.1736
37.250,89.3342
37.260,85.7575
37.270,86.6428
37.280,86.9412
37.290,78.5116
37.300,86.5885
37.310,82.7337
37.320,82.7503
37.330,78.1074
37.340,87.1016
37.350,81.7650
37.360,85.2270
37.370,90.6130
37.380,89.9114
37.390,81.4855
37.400,83.0140
37.410,88.2520
37.420,80.0822
37.430,82.1192
37.440,88.1460
37.450,87.6433
37.460,83.9702
37.470,88.7982
37.480,92.7255
37.490,89.6100
37.500,80.9801
37.510,88.9964
37.520,80.2148
37.530,83.8913
37.540,89.8244
37.550,82.9472
37.560,89.9924
37.570,90.1676
37.580,80.7695
37.590,80.5022
37.600,88.7437
37.610,91.0165
37.620,89.6832
37.630,86.6409
37.640,85.0350
37.650,83.0281
37.660,83.8785
37.670,82.9870
37.680,83.8653
37.690,80.4489
37.700,90.7712
37.710,88.8592
37.720,83.5371
37.730,86.6356
37.740,88.0765
37.750,82.6251
37.760,79.7413
37.770,86.1977
37.780,78.3276
37.790,80.9387
37.800,83.3343
37.810,79.3195
37.820,76.4532
37.830,84.0919
37.840,81.3027
37.850,78.5193
37.860,81.8361
37.870,85.4682
37.880,79.8052
37.890,84.0300
37.900,84.7690
37.910,75.6814
37.920,73.4204
37.930,80.1181
37.940,77.5216
37.950,75.5999
37.960,78.4525
37.970,75.5060
37.980,77.7364
37.990,78.1150
38.000,83.5493
38.010,75.2334
38.020,73.1939
38.030,77.4271
38.040,77.0927
38.050,69.8079
38.060,83.0005
38.070,71.3444
38.080,72.2486
38.090,69.3969
38.100,75.2888
38.110,71.6840
38.120,73.9038
38.130,81.3177
38.140,77.2047
38.150,73.6493
38.160,77.5963
38.170,72.5406
38.180,72.8250
38.190,77.2774
38.200,70.1567
38.210,70.2564
38.220,79.2389
38.230,78.2313
38.240,70.2496
38.250,75.8540
38.260,71.7516
38.270,75.0147
38.280,68.3931
38.290,80.7423
38.300,68.3722
38.310,72.2780
38.320,82.0236
38.330,68.6766
38.340,74.4344
38.350,81.8065
38.360,71.8234
38.370,77.4921
38.380,79.5028
38.390,72.8694
38.400,70.9435
38.410,83.9774
38.420,78.9204
38.430,78.3069
38.440,81.8392
38.450,78.4690
38.460,75.1807
38.470,82.0819
38.480,78.6679
38.490,74.3261
38.500,79.1186
38.510,79.8185
38.520,73.3701
38.530,77.3790
38.540,81.7942
38.550,82.0030
38.560,75.7847
38.570,84.5193
38.580,81.3944
38.590,85.5914
38.600,77.1729
38.610,85.9905
38.620,84.2136
38.630,88.1097
38.640,79.7120
38.650,81.1718
38.660,84.4955
38.670,81.8754
38.680,89.3468
38.690,87.9809
38.700,82.2856
38.710,80.2015
38.720,78.9386
38.730,87.4883
38.740,85.0820
38.750,83.9076
38.760,85.4398
38.770,83.7681
38.780,89.9843
38.790,90.2264
38.800,91.7948
38.810,82.9658
38.820,88.2493
38.830,90.7485
38.840,79.5912
38.850,84.5619
38.860,83.7425
38.870,80.9117
38.880,85.7208
38.890,89.3149
38.900,91.8652
38.910,87.8476
38.920,87.6322
38.930,81.2567
38.940,90.7484
38.950,81.8578
38.960,87.8640
38.970,88.0631
38.980,85.7172
38.990,90.2712
39.000,81.0439
39.010,81.7989
39.020,81.4239
39.030,91.5945
39.040,79.5316
39.050,90.4827
39.060,88.6030
39.070,80.7457
39.080,92.2148
39.090,78.8500
39.100,86.1304
39.110,87.8421
39.120,86.0441
39.130,89.4282
39.140,81.3744
39.150,88.7502
39.160,76.9471
39.170,79.8250
39.180,89.7032
39.190,85.0115
39.200,88.9545
39.210,77.5029
39.220,80.2912
39.230,85.7920
39.240,76.9583
39.250,87.0636
39.260,85.8351
39.270,88.2107
39.280,86.4713
39.290,74.0324
39.300,84.7917
39.310,76.7580
39.320,79.3714
39.330,73.8634
39.340,76.6618
39.350,80.1070
39.360,85.0475
39.370,78.8340
39.380,79.8057
39.390,79.9177
39.400,74.9605
39.410,78.3859
39.420,77.2537
39.430,70.5537
39.440,79.5959
39.450,75.7423
39.460,78.0555
39.470,74.2397
39.480,77.9500
39.490,81.7410
39.500,80.9802
39.510,75.0729
39.520,72.0467
39.530,71.9060
39.540,79.2869
39.550,68.8645
39.560,74.1187
39.570,79.1595
39.580,70.8342
39.590,74.0350
39.600,69.5447
39.610,75.6892
39.620,71.7293
39.630,71.1436
39.640,80.0894
39.650,74.3313
39.660,72.8931
39.670,77.2696
39.680,69.5238
39.690,70.8122
39.700,75.1280
39.710,73.4711
39.720,69.4057
39.730,76.9823
39.740,75.2642
39.750,79.0683
39.760,82.0244
39.770,72.6719
39.780,77.5137
39.790,76.9636
39.800,80.0654
39.810,72.7184
39.820,83.6867
39.830,70.7211
39.840,78.3958
39.850,73.4433
39.860,83.8909
39.870,83.2757
39.880,79.6935
39.890,72.7256
39.900,74.6118
39.910,84.6691
39.920,84.9763
39.930,85.7870
39.940,73.6686
39.950,85.6936
39.960,74.2351
39.970,83.1060
39.980,83.6735
39.990,74.5717
40.000,83.6610
40.010,87.9692
40.020,80.7458
40.030,78.4649
40.040,86.8749
40.050,81.1408
40.060,81.0648
40.070,83.5965
40.080,78.4838
40.090,82.7257
40.100,85.9959
40.110,77.7383
40.120,77.1062
40.130,78.3859
40.140,78.6641
40.150,84.2434
40.160,90.0578
40.170,86.4559
40.180,86.9741
40.190,84.8933
40.200,88.8765
40.210,88.8587
40.220,87.0941
40.230,82.8778
40.240,91.2856
40.250,83.2410
40.260,80.4635
40.270,90.3541
40.280,80.2866
40.290,83.0367
40.300,86.9303
40.310,80.5643
40.320,90.9384
40.330,93.3742
40.340,82.6698
40.350,88.1425
40.360,81.1379
40.370,80.9715
40.380,86.3926
40.390,79.9290
40.400,85.4246
40.410,90.4755
40.420,92.3977
40.430,87.1779
40.440,89.4597
40.450,87.0694
40.460,92.3765
40.470,85.3351
40.480,84.5926
40.490,92.4225
40.500,85.7361
40.510,83.7283
40.520,88.6205
40.530,79.0662
40.540,85.5341
40.550,81.1473
40.560,87.3724
40.570,81.1710
40.580,88.0808
40.590,84.2599
40.600,79.3041
40.610,83.8164
40.620,84.5976
40.630,81.7139
40.640,82.8550
40.650,79.6382
40.660,76.7867
40.670,85.0367
40.680,80.7752
40.690,77.7173
40.700,77.3467
40.710,80.4416
40.720,84.6699
40.730,74.3793
40.740,79.5864
40.750,78.4606
40.760,75.7950
40.770,79.4876
40.780,82.9396
40.790,78.2901
40.800,74.8824
40.810,74.8873
40.820,76.8833
40.830,80.9032
40.840,79.7424
40.850,81.8769
40.860,77.1301
40.870,84.3909
40.880,76.7314
40.890,81.5296
40.900,84.1982
40.910,77.9820
40.920,82.2937
40.930,71.1853
40.940,73.2622
40.950,78.6464
40.960,78.9905
40.970,73.3860
40.980,69.4178
40.990,80.2888
41.000,70.4374
41.010,69.9225
41.020,81.2190
41.030,79.6134
41.040,82.3737
41.050,78.4052
41.060,71.8160
41.070,81.2174
41.080,74.0135
41.090,68.8503
41.100,78.3047
41.110,71.5405
41.120,75.0007
41.130,72.3617
41.140,74.4306
41.150,82.2070
41.160,81.5652
41.170,78.8598
41.180,79.7487
41.190,75.9596
41.200,71.2306
41.210,79.7327
41.220,77.8564
41.230,77.3916
41.240,73.6792
41.250,81.3680
41.260,77.4701
41.270,72.7033
41.280,76.5996
41.290,77.0213
41.300,81.4186
41.310,77.3167
41.320,81.7235
41.330,85.9417
41.340,73.0559
41.350,83.9765
41.360,77.8997
41.370,74.4068
41.380,73.3557
41.390,73.8934
41.400,83.6703
41.410,85.6269
41.420,79.4259
41.430,77.8639
41.440,85.7755
41.450,87.4973
41.460,79.4571
41.470,86.9233
41.480,81.8104
41.490,89.3573
41.500,76.3790
41.510,83.9961
41.520,82.4520
41.530,77.6710
41.540,79.5823
41.550,80.6247
41.560,90.1966
41.570,82.2316
41.580,89.0779
41.590,80.7100
41.600,90.0865
41.610,88.4512
41.620,83.5722
41.630,84.8381
41.640,89.1994
41.650,91.1112
41.660,85.0072
41.670,86.1741
41.680,87.2173
41.690,90.6544
41.700,87.6734
41.710,89.3182
41.720,86.4603
41.730,81.4272
41.740,89.2207
41.750,80.2897
41.760,82.8288
41.770,86.8537
41.780,86.8897
41.790,80.8960
41.800,93.5885
41.810,83.4527
41.820,90.9825
41.830,80.8491
41.840,91.0222
41.850,88.1257
41.860,88.4103
41.870,89.6438
41.880,85.1410
41.890,90.5701
41.900,82.2728
41.910,87.2140
41.920,83.4268
41.930,79.1448
41.940,81.6617
41.950,84.6883
41.960,80.7375
41.970,90.0243
41.980,84.3005
41.990,86.0875
42.000,81.4201
42.010,79.9315
42.020,83.2902
42.030,82.8000
42.040,89.3948
42.050,86.0629
42.060,84.7349
42.070,82.4062
42.080,77.8030
42.090,80.6198
42.100,87.9229
42.110,84.3659
42.120,76.2066
42.130,86.9417
42.140,77.7321
42.150,78.6039
42.160,82.2564
42.170,81.8807
42.180,85.3261
42.190,73.8057
42.200,85.6358
42.210,83.5867
42.220,77.8767
42.230,79.1998
42.240,72.6582
42.250,79.1130
42.260,76.1397
42.270,77.5875
42.280,82.5651
42.290,72.7971
42.300,84.7692
42.310,79.1150
42.320,82.8714
42.330,74.3248
42.340,72.5602
42.350,75.9270
42.360,82.0501
42.370,72.7688
42.380,70.9285
42.390,69.9346
42.400,76.6892
42.410,77.5525
42.420,70.0165
42.430,70.6622
42.440,80.4604
42.450,75.2003
42.460,74.6586
42.470,77.6302
42.480,82.4941
42.490,71.1571
42.500,80.8458
42.510,70.0863
42.520,79.5431
42.530,82.4448
42.540,70.0302
42.550,79.2011
42.560,80.3499
42.570,81.0063
42.580,70.7140
42.590,82.7138
42.600,81.5671
42.610,81.9850
42.620,80.9445
42.630,80.7001
42.640,78.4300
42.650,81.8308
42.660,77.1488
42.670,73.3648
42.680,78.8864
42.690,83.5078
42.700,79.6580
42.710,78.0221
42.720,74.6293
42.730,80.7524
42.740,73.3253
42.750,74.4046
42.760,72.4591
42.770,75.8185
42.780,77.2999
42.790,83.4872
42.800,77.7823
42.810,79.8455
42.820,86.6752
42.830,87.3453
42.840,87.9987
42.850,78.3033
42.860,88.6785
42.870,79.5405
42.880,84.0837
42.890,89.4633
42.900,83.1787
42.910,78.9135
42.920,88.4396
42.930,78.7896
42.940,82.1290
42.950,83.7711
42.960,79.9861
42.970,81.1794
42.980,79.7375
42.990,88.8307
43.000,86.6895
43.010,84.9017
43.020,80.1330
43.030,88.7119
43.040,88.5568
43.050,84.1866
43.060,87.3123
43.070,80.8407
43.080,82.3811
43.090,90.4382
43.100,87.6262
43.110,80.9701
43.120,87.9809
43.130,89.1770
43.140,91.3797
43.150,89.2866
43.160,86.0690
43.170,87.3617
43.180,86.2814
43.190,86.2397
43.200,84.4825
43.210,89.7529
43.220,93.5330
43.230,91.1437
43.240,91.5063
43.250,87.7429
43.260,91.9326
43.270,92.0028
43.280,84.4169
43.290,82.8425
43.300,83.1057
43.310,87.1814
43.320,92.5882
43.330,88.4469
43.340,84.3185
43.350,92.4226
43.360,87.6662
43.370,91.1111
43.380,90.8954
43.390,89.4547
43.400,79.7465
43.410,82.6155
43.420,79.3727
43.430,81.7342
43.440,91.0974
43.450,91.3429
43.460,85.5581
43.470,89.3596
43.480,79.2081
43.490,88.8913
43.500,77.8781
43.510,89.2979
43.520,83.7862
43.530,81.9958
43.540,89.2842
43.550,83.3126
43.560,75.7680
43.570,76.5999
43.580,75.4399
43.590,78.4212
43.600,76.0338
43.610,84.4197
43.620,87.7587
43.630,83.2053
43.640,85.5771
43.650,78.0712
43.660,83.1123
43.670,84.7448
43.680,83.0782
43.690,83.6770
43.700,78.4404
43.710,84.3591
43.720,79.1929
43.730,79.9834
43.740,80.6632
43.750,82.8392
43.760,73.8886
43.770,83.2479
43.780,75.3180
43.790,79.1833
43.800,75.9006
43.810,76.6468
43.820,75.8630
43.830,78.6452
43.840,78.4349
43.850,72.5547
43.860,79.0913
43.870,71.4571
43.880,76.4890
43.890,75.0502
43.900,79.6491
43.910,82.7962
43.920,69.5945
43.930,75.0486
43.940,76.7069
43.950,80.9530
43.960,70.5021
43.970,75.4445
43.980,74.1790
43.990,80.6896
44.000,81.2293
44.010,82.4260
44.020,72.4295
44.030,82.1982
44.040,79.6008
44.050,70.4680
44.060,76.2462
44.070,79.4776
44.080,78.6582
44.090,76.9755
44.100,73.1894
44.110,82.4775
44.120,84.2223
44.130,82.6445
44.140,75.0659
44.150,74.0572
44.160,83.0418
44.170,78.5900
44.180,76.2527
44.190,84.5505
44.200,77.5348
44.210,87.1477
44.220,79.2242
44.230,84.8565
44.240,87.3781
44.250,82.7392
44.260,75.7889
44.270,86.2168
44.280,84.8934
44.290,83.8982
44.300,80.0557
44.310,82.6233
44.320,85.4860
44.330,76.6126
44.340,83.2732
44.350,78.9142
44.360,90.9917
44.370,83.1722
44.380,89.1696
44.390,84.9686
44.400,91.0976
44.410,78.1896
44.420,86.4697
44.430,81.0472
44.440,91.8292
44.450,84.9937
44.460,91.6939
44.470,91.6051
44.480,79.6587
44.490,82.9951
44.500,87.7759
44.510,88.8369
44.520,93.2058
44.530,91.0703
44.540,89.7606
44.550,87.3187
44.560,83.7665
44.570,80.8474
44.580,92.7742
44.590,81.6597
44.600,89.4092
44.610,88.3491
44.620,86.8498
44.630,92.1828
44.640,92.1402
44.650,88.7098
44.660,84.3067
44.670,93.8113
44.680,83.3677
44.690,86.1693
44.700,87.6279
44.710,85.9949
44.720,82.5704
44.730,84.5190
44.740,82.4228
44.750,87.2414
44.760,80.3458
44.770,80.4024
44.780,87.9558
44.790,83.8853
44.800,81.4157
44.810,86.7497
44.820,83.8171
44.830,80.4325
44.840,84.6287
44.850,81.6520
44.860,84.1793
44.870,88.9072
44.880,84.1718
44.890,85.1492
44.900,80.3515
44.910,81.1607
44.920,88.2672
44.930,80.3926
44.940,82.7371
44.950,86.6619
44.960,83.3132
44.970,88.1771
44.980,85.7202
44.990,84.5013
45.000,76.4689
45.010,88.5307
45.020,89.7377
45.030,83.0079
45.040,91.3201
45.050,88.4799
45.060,89.7833
45.070,94.8924
45.080,90.8792
45.090,98.1108
45.100,97.9775
45.110,99.5836
45.120,103.6995
45.130,101.7232
45.140,99.3010
45.150,99.4178
45.160,100.2047
45.170,105.7117
45.180,104.9655
45.190,111.2076
45.200,110.0994
45.210,103.7229
45.220,115.1726
45.230,115.2783
45.240,107.5449
45.250,108.6270
45.260,119.2135
45.270,111.4469
45.280,118.3950
45.290,123.5847
45.300,114.9653
45.310,113.9191
45.320,116.6215
45.330,122.1238
45.340,125.8521
45.350,124.5831
45.360,121.6620
45.370,121.2589
45.380,123.8959
45.390,132.1000
45.400,137.3644
45.410,136.0978
45.420,132.7879
45.430,137.7442
45.440,143.1113
45.450,139.3928
45.460,137.2234
45.470,135.9632
45.480,137.7628
45.490,136.9772
45.500,138.2081
45.510,150.1781
45.520,143.4510
45.530,141.8551
45.540,152.8288
45.550,152.2586
45.560,148.1126
45.570,158.2532
45.580,149.2845
45.590,159.6475
45.600,161.8579
45.610,159.3880
45.620,159.8862
45.630,158.0234
45.640,164.8924
45.650,169.3324
45.660,163.1091
45.670,159.1451
45.680,163.9919
45.690,170.0865
45.700,167.0921
45.710,165.6348
45.720,175.9075
45.730,177.2935
45.740,178.1172
45.750,169.4074
45.760,178.9267
45.770,183.7958
45.780,182.7771
45.790,178.5730
45.800,181.1899
45.810,180.0474
45.820,177.8440
45.830,187.1453
45.840,193.4284
45.850,186.9495
45.860,186.4393
45.870,184.4022
45.880,194.8129
45.890,192.3900
45.900,189.8675
45.910,197.8295
45.920,202.4805
45.930,202.9112
45.940,198.8617
45.950,194.0785
45.960,200.0342
45.970,198.4980
45.980,197.5021
45.990,204.6215
46.000,212.4438
46.010,202.1202
46.020,199.6671
46.030,201.2826
46.040,204.4381
46.050,208.8105
46.060,209.0818
46.070,203.7483
46.080,200.1916
46.090,207.7264
46.100,211.2809
46.110,204.1513
46.120,203.5562
46.130,205.7397
46.140,212.5147
46.150,200.7647
46.160,206.2181
46.170,200.5646
46.180,201.4836
46.190,213.0643
46.200,205.6726
46.210,212.4270
46.220,213.2321
46.230,201.5379
46.240,200.3357
46.250,209.0546
46.260,207.3728
46.270,203.3205
46.280,207.3900
46.290,207.6781
46.300,205.5734
46.310,204.2063
46.320,211.4996
46.330,201.7104
46.340,203.4045
46.350,208.4069
46.360,200.5583
46.370,210.0194
46.380,204.3458
46.390,205.2932
46.400,201.7646
46.410,203.8747
46.420,201.2627
46.430,208.8613
46.440,205.2241
46.450,209.6124
46.460,206.3852
46.470,205.5472
46.480,211.6220
46.490,210.6877
46.500,212.9175
46.510,205.6620
46.520,213.1246
46.530,202.3171
46.540,207.3292
46.550,205.0762
46.560,210.9772
46.570,202.2708
46.580,208.4188
46.590,200.8546
46.600,210.0483
46.610,212.5513
46.620,205.6113
46.630,201.5698
46.640,201.2293
46.650,202.0442
46.660,204.2027
46.670,204.9779
46.680,204.1149
46.690,210.4818
46.700,201.7428
46.710,201.5761
46.720,207.4951
46.730,213.5703
46.740,209.4999
46.750,204.0141
46.760,206.5159
46.770,205.1077
46.780,207.6134
46.790,212.2597
46.800,200.3080
46.810,211.8702
46.820,208.4167
46.830,211.9220
46.840,211.2853
46.850,207.3437
46.860,210.0787
46.870,212.9671
46.880,200.9861
46.890,212.1725
46.900,200.4389
46.910,207.1201
46.920,203.2852
46.930,208.1131
46.940,211.9036
46.950,203.0520
46.960,210.4948
46.970,212.6113
46.980,205.8419
46.990,204.4653
47.000,79.1969
47.010,76.0054
47.020,79.2782
47.030,84.9244
47.040,83.9741
47.050,87.2611
47.060,80.7746
47.070,82.1505
47.080,79.3199
47.090,75.7325
47.100,82.9678
47.110,77.5756
47.120,88.4611
47.130,76.1772
47.140,84.1291
47.150,82.4682
47.160,81.1090
47.170,80.7568
47.180,86.2730
47.190,79.3780
47.200,77.8728
47.210,90.9571
47.220,87.9988
47.230,79.1626
47.240,79.0633
47.250,87.3952
47.260,81.0216
47.270,90.9344
47.280,81.0132
47.290,88.2351
47.300,85.2024
47.310,83.6654
47.320,82.4694
47.330,82.5384
47.340,86.3506
47.350,92.1926
47.360,86.5603
47.370,88.0049
47.380,81.1413
47.390,81.3295
47.400,83.6815
47.410,83.1833
47.420,92.9234
47.430,91.0100
47.440,93.8369
47.450,94.5502
47.460,86.7618
47.470,88.5724
47.480,86.2662
47.490,85.3723
47.500,86.3278
47.510,91.5750
47.520,86.3154
47.530,86.0819
47.540,86.3805
47.550,91.1619
47.560,92.9625
47.570,90.9558
47.580,91.1347
47.590,84.0874
47.600,89.9445
47.610,93.3858
47.620,89.0947
47.630,94.8276
47.640,83.2855
47.650,91.3117
47.660,90.5299
47.670,88.6880
47.680,92.7935
47.690,81.4502
47.700,90.3355
47.710,89.3270
47.720,86.0636
47.730,80.3969
47.740,86.9089
47.750,86.4493
47.760,91.6269
47.770,83.7782
47.780,80.7130
47.790,90.0154
47.800,83.0731
47.810,85.4991
47.820,82.5223
47.830,83.9012
47.840,88.3351
47.850,86.2813
47.860,87.2954
47.870,80.7472
47.880,86.0806
47.890,79.8482
47.900,76.1530
47.910,87.8955
47.920,75.2544
47.930,87.5748
47.940,81.9523
47.950,77.8163
47.960,86.4579
47.970,78.4361
47.980,83.9008
47.990,77.1730
48.000,76.9130
48.010,78.3489
48.020,80.1971
48.030,85.7321
48.040,77.4630
48.050,77.4453
48.060,78.3730
48.070,71.8417
48.080,77.6145
48.090,74.5484
48.100,73.3495
48.110,73.3460
48.120,79.1759
48.130,74.2409
48.140,75.2463
48.150,78.5561
48.160,74.7037
48.170,71.9455
48.180,70.9157
48.190,71.9080
48.200,82.9582
48.210,79.2896
48.220,81.7251
48.230,83.6617
48.240,79.9229
48.250,72.4166
48.260,72.9651
48.270,84.2512
48.280,76.1572
48.290,80.2065
48.300,75.2163
48.310,74.1149
48.320,76.1802
48.330,78.9923
48.340,78.4469
48.350,78.3030
48.360,74.7094
48.370,80.0121
48.380,81.0646
48.390,76.6621
48.400,75.1338
48.410,74.0705
48.420,78.9377
48.430,78.6330
48.440,86.4253
48.450,74.0047
48.460,83.8435
48.470,74.8231
48.480,87.6315
48.490,74.9004
48.500,86.9454
48.510,76.6875
48.520,86.6733
48.530,80.5150
48.540,82.0994
48.550,87.3177
48.560,85.3668
48.570,88.5053
48.580,79.9564
48.590,90.1986
48.600,85.4505
48.610,79.9398
48.620,78.7124
48.630,85.3370
48.640,78.9867
48.650,89.2922
48.660,90.5157
48.670,92.2353
48.680,84.8224
48.690,84.6681
48.700,85.5722
48.710,91.5714
48.720,87.7347
48.730,85.6971
48.740,81.9467
48.750,90.5830
48.760,94.1902
48.770,81.0638
48.780,81.3278
48.790,84.6504
48.800,81.8317
48.810,85.1604
48.820,91.9958
48.830,85.8746
48.840,93.6953
48.850,85.0740
48.860,94.7835
48.870,86.0673
48.880,90.0119
48.890,87.1796
48.900,92.6357
48.910,93.4727
48.920,86.3851
48.930,92.7050
48.940,90.4467
48.950,95.2516
48.960,89.6250
48.970,94.9193
48.980,84.1359
48.990,90.0605
49.000,84.6727
49.010,83.9069
49.020,92.2692
49.030,82.1380
49.040,84.1070
49.050,92.7429
49.060,92.5233
49.070,93.4068
49.080,88.3665
49.090,89.6385
49.100,88.4724
49.110,85.6550
49.120,89.9234
49.130,84.3889
49.140,91.1379
49.150,81.2480
49.160,84.6350
49.170,90.3302
49.180,87.0216
49.190,82.5449
49.200,86.3117
49.210,84.6225
49.220,83.8850
49.230,86.6140
49.240,91.0290
49.250,78.2637
49.260,81.2909
49.270,85.9240
49.280,85.7607
49.290,89.9151
49.300,89.8807
49.310,76.2375
49.320,76.3481
49.330,85.2376
49.340,75.4350
49.350,85.2659
49.360,88.4317
49.370,77.0918
49.380,87.5448
49.390,77.2679
49.400,83.9830
49.410,81.5908
49.420,83.6190
49.430,74.4294
49.440,83.6319
49.450,84.0281
49.460,74.7682
49.470,79.1011
49.480,83.2897
49.490,79.8260
49.500,81.2041
49.510,82.2896
49.520,74.3750
49.530,84.3023
49.540,75.9315
49.550,82.9060
49.560,74.6750
49.570,76.1892
49.580,85.2301
49.590,75.4698
49.600,72.5696
49.610,76.0433
49.620,80.0114
49.630,73.4592
49.640,72.4879
49.650,74.2375
49.660,81.0711
49.670,80.6666
49.680,79.8544
49.690,74.2701
49.700,79.7384
49.710,82.9810
49.720,72.9989
49.730,84.6527
49.740,72.1096
49.750,81.7583
49.760,78.7080
49.770,72.8365
49.780,79.2203
49.790,79.1505
49.800,86.3173
49.810,76.3540
49.820,75.8392
49.830,84.1306
49.840,78.6023
49.850,82.8707
49.860,86.8964
49.870,84.7794
49.880,76.2717
49.890,74.3515
49.900,87.6795
49.910,86.2563
49.920,88.7102
49.930,79.9465
49.940,87.3504
49.950,84.7681
49.960,78.1751
49.970,82.1364
49.980,87.0435
49.990,88.3592
50.000,90.0444
50.010,88.1098
50.020,90.8200
50.030,85.0443
50.040,84.7349
50.050,80.0930
50.060,78.9596
50.070,90.6635
50.080,86.5773
50.090,86.7502
50.100,92.4737
50.110,80.4342
50.120,87.9598
50.130,85.9598
50.140,88.7791
50.150,83.6642
50.160,91.2926
50.170,81.8498
50.180,88.8796
50.190,82.1220
50.200,86.4057
50.210,84.4530
50.220,83.3665
50.230,85.3631
50.240,93.9303
50.250,95.5514
50.260,89.5880
50.270,82.1984
50.280,91.4369
50.290,85.6874
50.300,90.0711
50.310,89.0918
50.320,83.5325
50.330,91.4625
50.340,89.2739
50.350,88.5088
50.360,89.3130
50.370,90.7403
50.380,94.5312
50.390,93.5034
50.400,82.5320
50.410,92.7118
50.420,90.5836
50.430,84.5267
50.440,92.0757
50.450,94.5438
50.460,92.2316
50.470,91.9252
50.480,89.8382
50.490,85.7757
50.500,90.9148
50.510,87.5271
50.520,93.5377
50.530,93.8640
50.540,91.2189
50.550,80.7157
50.560,91.8570
50.570,87.0605
50.580,85.0484
50.590,87.5847
50.600,80.6849
50.610,82.3220
50.620,86.8280
50.630,85.2017
50.640,84.3656
50.650,91.9132
50.660,88.6896
50.670,81.5708
50.680,87.5559
50.690,89.6344
50.700,85.0142
50.710,78.2312
50.720,81.9552
50.730,80.4632
50.740,79.2465
50.750,82.4930
50.760,83.5840
50.770,77.1571
50.780,88.0440
50.790,80.8899
50.800,85.9037
50.810,83.8334
50.820,74.9583
50.830,79.1855
50.840,84.7681
50.850,84.9889
50.860,85.7451
50.870,79.5811
50.880,74.6287
50.890,85.6916
50.900,85.4358
50.910,75.1549
50.920,82.7184
50.930,79.5781
50.940,81.7200
50.950,80.1299
50.960,75.6834
50.970,85.5853
50.980,76.4773
50.990,82.3951
51.000,72.1597
51.010,82.2739
51.020,72.1098
51.030,74.9726
51.040,78.1705
51.050,84.3055
51.060,81.5768
51.070,81.7457
51.080,85.0861
51.090,78.1146
51.100,73.6517
51.110,77.5246
51.120,73.2301
51.130,76.5964
51.140,85.4761
51.150,76.9978
51.160,80.4101
51.170,75.3965
51.180,72.6316
51.190,81.3296
51.200,80.7338
51.210,74.9042
51.220,85.7438
51.230,85.9399
51.240,74.3618
51.250,77.0784
51.260,82.2292
51.270,85.9450
51.280,87.6798
51.290,85.4096
51.300,75.6730
51.310,85.4819
51.320,83.9317
51.330,86.6596
51.340,87.4968
51.350,78.5669
51.360,86.4924
51.370,79.1106
51.380,76.5500
51.390,85.8250
51.400,84.8209
51.410,77.5298
51.420,85.8269
51.430,86.9160
51.440,81.9838
51.450,88.0393
51.460,86.3097
51.470,85.7282
51.480,89.0694
51.490,79.7772
51.500,80.6417
51.510,83.3469
51.520,87.2789
51.530,88.7791
51.540,81.4430
51.550,84.0146
51.560,94.0872
51.570,82.7080
51.580,86.6925
51.590,89.5909
51.600,84.6561
51.610,86.6794
51.620,85.3529
51.630,84.8055
51.640,86.4243
51.650,94.5951
51.660,85.3142
51.670,82.6065
51.680,88.4700
51.690,85.4529
51.700,83.1459
51.710,85.3799
51.720,84.8043
51.730,89.9995
51.740,96.0750
51.750,93.6101
51.760,83.3571
51.770,86.0936
51.780,86.9396
51.790,94.7630
51.800,96.1280
51.810,95.8674
51.820,90.6954
51.830,89.0571
51.840,88.9694
51.850,85.7781
51.860,86.6102
51.870,91.3715
51.880,90.8264
51.890,91.4256
51.900,94.1403
51.910,91.6667
51.920,95.6202
51.930,83.9874
51.940,84.6619
51.950,83.5698
51.960,84.3883
51.970,87.5629
51.980,91.4116
51.990,84.5766
52.000,86.7258
52.010,90.3684
52.020,88.0690
52.030,89.0501
52.040,87.2944
52.050,84.5542
52.060,87.0484
52.070,81.3940
52.080,87.6495
52.090,86.7308
52.100,82.2908
52.110,89.8134
52.120,89.9730
52.130,87.3792
52.140,87.5290
52.150,78.8229
52.160,86.6053
52.170,84.7657
52.180,76.5461
52.190,83.7687
52.200,77.1169
52.210,83.7932
52.220,79.9963
52.230,83.7799
52.240,81.0187
52.250,82.7200
52.260,76.7708
52.270,75.5328
52.280,82.7119
52.290,86.1087
52.300,84.1048
52.310,74.1210
52.320,75.9329
52.330,80.4379
52.340,79.3360
52.350,82.1398
52.360,82.1574
52.370,84.2331
52.380,76.9753
52.390,73.8740
52.400,78.4320
52.410,80.5895
52.420,76.7460
52.430,72.1033
52.440,80.7670
52.450,75.0873
52.460,73.6373
52.470,78.4052
52.480,78.5527
52.490,74.1609
52.500,84.4060
52.510,81.0442
52.520,77.9465
52.530,74.9813
52.540,72.9106
52.550,79.0824
52.560,75.3856
52.570,77.5548
52.580,80.3032
52.590,80.6906
52.600,81.5823
52.610,79.8042
52.620,74.8048
52.630,80.1181
52.640,80.7661
52.650,87.0150
52.660,79.4132
52.670,81.7824
52.680,79.1554
52.690,78.3160
52.700,78.3550
52.710,84.1822
52.720,78.1131
52.730,78.9317
52.740,81.9903
52.750,76.7116
52.760,79.7427
52.770,83.4086
52.780,82.8461
52.790,84.3261
52.800,78.2705
52.810,76.8885
52.820,87.5083
52.830,76.9268
52.840,83.9562
52.850,87.2672
52.860,89.2058
52.870,78.5614
52.880,80.2047
52.890,88.4709
52.900,79.4242
52.910,89.1134
52.920,85.5089
52.930,91.6636
52.940,89.2656
52.950,81.2815
52.960,89.7019
52.970,80.2893
52.980,87.7766
52.990,89.5144
53.000,91.0858
53.010,84.1298
53.020,82.3560
53.030,84.8357
53.040,86.4844
53.050,88.2089
53.060,90.6379
53.070,87.5867
53.080,95.3689
53.090,87.5110
53.100,85.7075
53.110,89.4734
53.120,88.5619
53.130,88.6203
53.140,86.4132
53.150,84.3512
53.160,83.5983
53.170,88.3119
53.180,88.5860
53.190,87.4443
53.200,89.9665
53.210,91.8513
53.220,95.8157
53.230,96.7193
53.240,89.0823
53.250,87.9815
53.260,94.8491
53.270,88.7246
53.280,85.1263
53.290,96.6796
53.300,88.3285
53.310,85.1208
53.320,95.8906
53.330,85.2347
53.340,88.0283
53.350,91.9693
53.360,95.5838
53.370,85.8467
53.380,90.2727
53.390,85.6714
53.400,86.0138
53.410,87.8230
53.420,90.5023
53.430,85.1879
53.440,85.1193
53.450,87.7572
53.460,93.6302
53.470,88.2727
53.480,82.9474
53.490,89.7226
53.500,89.7538
53.510,81.2590
53.520,90.9103
53.530,86.2595
53.540,81.9837
53.550,81.8977
53.560,82.5739
53.570,80.9572
53.580,78.0044
53.590,80.0529
53.600,83.5647
53.610,90.5985
53.620,88.1055
53.630,80.6593
53.640,87.4367
53.650,87.4257
53.660,87.0897
53.670,77.0443
53.680,86.1800
53.690,77.1436
53.700,86.6630
53.710,77.4424
53.720,82.7491
53.730,75.0998
53.740,84.5960
53.750,75.4441
53.760,83.3975
53.770,78.6286
53.780,76.6079
53.790,76.1827
53.800,83.3251
53.810,85.7998
53.820,77.7778
53.830,75.1244
53.840,76.0447
53.850,86.3761
53.860,75.4171
53.870,84.8589
53.880,83.2770
53.890,85.6404
53.900,81.1586
53.910,76.8929
53.920,77.1646
53.930,85.6176
53.940,74.2130
53.950,73.8249
53.960,84.9339
53.970,84.7409
53.980,74.7154
53.990,84.8133
54.000,75.4616
54.010,76.2619
54.020,82.6759
54.030,74.2091
54.040,86.3094
54.050,81.5160
54.060,81.4992
54.070,84.9929
54.080,76.3888
54.090,87.4042
54.100,74.4925
54.110,80.2640
54.120,76.2159
54.130,87.0070
54.140,85.8679
54.150,85.5262
54.160,88.3582
54.170,79.2108
54.180,88.5004
54.190,77.2480
54.200,83.7195
54.210,85.2960
54.220,86.7524
54.230,84.0138
54.240,89.7405
54.250,81.6017
54.260,86.4403
54.270,82.2346
54.280,91.4339
54.290,87.6076
54.300,78.8725
54.310,83.1108
54.320,86.6480
54.330,91.9793
54.340,92.5373
54.350,85.0286
54.360,84.5415
54.370,80.0963
54.380,91.1929
54.390,89.3406
54.400,87.4344
54.410,84.6755
54.420,83.6285
54.430,88.6811
54.440,87.8419
54.450,82.1587
54.460,88.0104
54.470,88.8860
54.480,82.1513
54.490,82.4680
54.500,93.3480
54.510,93.4283
54.520,96.4692
54.530,85.5618
54.540,83.5176
54.550,84.2329
54.560,91.3285
54.570,85.6596
54.580,83.8641
54.590,89.9041
54.600,90.2178
54.610,92.3452
54.620,87.2074
54.630,87.5817
54.640,92.7409
54.650,85.0582
54.660,91.9368
54.670,94.4188
54.680,86.2731
54.690,88.9438
54.700,86.3140
54.710,85.9135
54.720,96.0264
54.730,89.1301
54.740,95.1274
54.750,89.0597
54.760,93.1702
54.770,84.5527
54.780,91.9200
54.790,83.9213
54.800,82.6339
54.810,82.8214
54.820,84.8806
54.830,94.5010
54.840,83.0666
54.850,87.2543
54.860,91.2492
54.870,83.7917
54.880,92.9636
54.890,93.1459
54.900,91.6015
54.910,94.2526
54.920,81.1876
54.930,82.4163
54.940,81.8936
54.950,90.1382
54.960,86.9681
54.970,89.1512
54.980,87.7525
54.990,89.5886
55.000,81.8302
55.010,85.2722
55.020,80.1054
55.030,82.7034
55.040,79.1999
55.050,80.7766
55.060,81.7648
55.070,85.7750
55.080,79.3213
55.090,77.2568
55.100,82.1585
55.110,82.3983
55.120,81.5756
55.130,82.0283
55.140,84.6611
55.150,87.6661
55.160,84.0272
55.170,74.9214
55.180,74.7770
55.190,80.1227
55.200,86.2813
55.210,82.1346
55.220,77.2212
55.230,76.8521
55.240,84.8297
55.250,75.4186
55.260,74.1974
55.270,86.4774
55.280,79.3446
55.290,86.4125
55.300,74.1054
55.310,73.8805
55.320,78.2531
55.330,76.0849
55.340,82.8768
55.350,77.9772
55.360,77.8743
55.370,85.5343
55.380,81.0004
55.390,74.8319
55.400,81.8433
55.410,83.5139
55.420,74.8507
55.430,77.3635
55.440,85.6378
55.450,81.9681
55.460,84.6037
55.470,81.0675
55.480,73.3852
55.490,79.5697
55.500,81.0995
55.510,78.0858
55.520,81.4803
55.530,82.6826
55.540,77.9558
55.550,78.0793
55.560,76.7355
55.570,86.3056
55.580,87.0382
55.590,81.1443
55.600,79.5680
55.610,81.1295
55.620,81.0518
55.630,78.4985
55.640,78.6481
55.650,77.6107
55.660,83.6334
55.670,87.1665
55.680,89.0808
55.690,82.3236
55.700,89.0153
55.710,84.9726
55.720,80.1170
55.730,83.8003
55.740,86.4942
55.750,80.2569
55.760,79.8105
55.770,83.4973
55.780,86.6232
55.790,90.2102
55.800,93.9028
55.810,80.9488
55.820,89.5478
55.830,89.7776
55.840,91.8064
55.850,84.8036
55.860,94.3563
55.870,85.4345
55.880,92.0711
55.890,94.5280
55.900,91.2153
55.910,87.7315
55.920,96.0274
55.930,89.0283
55.940,96.7633
55.950,89.1076
55.960,94.5247
55.970,92.5706
55.980,84.2983
55.990,85.7082
56.000,94.9263
56.010,84.7521
56.020,96.1176
56.030,88.1858
56.040,96.4434
56.050,94.0637
56.060,91.8913
56.070,90.0798
56.080,94.3510
56.090,93.4524
56.100,89.6743
56.110,95.9129
56.120,94.7079
56.130,96.3331
56.140,88.2393
56.150,91.3091
56.160,86.0633
56.170,89.9744
56.180,86.4718
56.190,86.0199
56.200,87.5262
56.210,86.7123
56.220,93.2824
56.230,90.3400
56.240,92.3186
56.250,95.0017
56.260,87.5418
56.270,89.8391
56.280,86.1926
56.290,90.9232
56.300,90.2549
56.310,83.1522
56.320,88.2028
56.330,90.4171
56.340,86.5224
56.350,83.2275
56.360,92.1962
56.370,80.6927
56.380,90.0651
56.390,91.0711
56.400,91.8516
56.410,81.6401
56.420,82.3115
56.430,83.6195
56.440,89.4521
56.450,82.5570
56.460,80.6748
56.470,80.6048
56.480,90.5138
56.490,89.7621
56.500,86.9336
56.510,80.1096
56.520,82.5665
56.530,80.2214
56.540,79.5075
56.550,83.0495
56.560,85.1940
56.570,76.3843
56.580,82.5019
56.590,79.8418
56.600,75.6369
56.610,77.3242
56.620,75.3523
56.630,79.2783
56.640,87.5906
56.650,81.8733
56.660,74.7720
56.670,74.3018
56.680,84.9200
56.690,84.7679
56.700,76.9608
56.710,74.9771
56.720,74.8295
56.730,73.4815
56.740,77.8908
56.750,73.5829
56.760,74.8311
56.770,79.8752
56.780,75.6719
56.790,79.5376
56.800,82.2010
56.810,73.7102
56.820,73.0269
56.830,82.9448
56.840,82.9182
56.850,77.3344
56.860,74.5633
56.870,80.4938
56.880,81.1460
56.890,78.1164
56.900,77.0553
56.910,74.9915
56.920,77.8140
56.930,86.3794
56.940,87.2383
56.950,74.4556
56.960,81.0936
56.970,82.6668
56.980,77.9204
56.990,79.9490
57.000,75.8509
57.010,80.6343
57.020,86.5393
57.030,89.2461
57.040,85.0762
57.050,87.6725
57.060,83.0105
57.070,80.6600
57.080,84.9249
57.090,77.3121
57.100,86.2612
57.110,84.3869
57.120,91.0379
57.130,91.8611
57.140,84.3376
57.150,80.7419
57.160,89.8579
57.170,81.6111
57.180,82.0510
57.190,80.5629
57.200,93.7426
57.210,91.5341
57.220,82.7235
57.230,82.5395
57.240,81.8707
57.250,84.5216
57.260,85.7135
57.270,94.4593
57.280,91.3167
57.290,95.8490
57.300,87.6350
57.310,92.8428
57.320,84.8352
57.330,88.3830
57.340,83.5461
57.350,93.2563
57.360,90.5493
57.370,83.6106
57.380,85.9750
57.390,88.1493
57.400,90.4870
57.410,95.7375
57.420,84.7746
57.430,89.8762
57.440,98.0811
57.450,94.6057
57.460,91.0304
57.470,85.6416
57.480,90.8402
57.490,88.5049
57.500,92.7676
57.510,91.4778
57.520,89.8478
57.530,85.0982
57.540,91.3455
57.550,87.4789
57.560,91.6486
57.570,96.5784
57.580,94.2506
57.590,89.4261
57.600,88.9261
57.610,91.6700
57.620,94.2314
57.630,94.1795
57.640,93.5020
57.650,86.0074
57.660,93.0100
57.670,91.2091
57.680,87.8717
57.690,88.7122
57.700,88.2753
57.710,85.7142
57.720,86.8577
57.730,87.2446
57.740,93.5050
57.750,92.8923
57.760,90.1294
57.770,90.9756
57.780,84.4310
57.790,93.5695
57.800,91.9659
57.810,84.9766
57.820,91.8616
57.830,89.9404
57.840,92.3604
57.850,79.5693
57.860,87.3442
57.870,85.3598
57.880,90.9391
57.890,80.1868
57.900,79.0005
57.910,87.4796
57.920,86.7805
57.930,89.9180
57.940,77.5014
57.950,85.7184
57.960,88.0761
57.970,88.2380
57.980,77.0143
57.990,85.6036
58.000,80.1200
58.010,77.9636
58.020,85.0851
58.030,79.1601
58.040,79.1592
58.050,87.6840
58.060,85.6257
58.070,77.6855
58.080,85.7510
58.090,88.0021
58.100,79.7901
58.110,83.4940
58.120,74.4073
58.130,81.8815
58.140,86.7396
58.150,78.8504
58.160,74.2598
58.170,77.8936
58.180,79.7052
58.190,85.5082
58.200,82.1321
58.210,82.0252
58.220,79.8415
58.230,84.0084
58.240,80.2989
58.250,79.9531
58.260,74.4707
58.270,84.6715
58.280,77.6830
58.290,76.9476
58.300,79.1922
58.310,87.2126
58.320,78.9234
58.330,75.9164
58.340,75.2694
58.350,79.0082
58.360,78.7044
58.370,86.6307
58.380,86.3819
58.390,77.4010
58.400,84.8043
58.410,80.5122
58.420,81.8859
58.430,82.6877
58.440,76.2159
58.450,88.5185
58.460,88.8192
58.470,84.7143
58.480,84.2076
58.490,80.0077
58.500,85.9802
58.510,81.5905
58.520,86.4405
58.530,84.9924
58.540,82.2767
58.550,84.8334
58.560,81.1176
58.570,84.4772
58.580,89.1380
58.590,87.2699
58.600,80.2108
58.610,82.1922
58.620,90.3113
58.630,80.8911
58.640,89.6356
58.650,82.7853
58.660,92.7565
58.670,87.8360
58.680,87.1584
58.690,91.5509
58.700,88.3594
58.710,86.4936
58.720,86.2603
58.730,92.6587
58.740,84.0888
58.750,84.2356
58.760,93.4719
58.770,88.1457
58.780,85.5950
58.790,87.6508
58.800,85.3138
58.810,97.1697
58.820,95.2302
58.830,87.8263
58.840,87.6929
58.850,85.5730
58.860,88.0704
58.870,92.2114
58.880,86.4964
58.890,85.6938
58.900,95.9934
58.910,88.4416
58.920,93.4870
58.930,85.2364
58.940,91.3704
58.950,87.2329
58.960,93.2538
58.970,96.4419
58.980,97.5603
58.990,86.3363
59.000,91.5613
59.010,96.6569
59.020,86.1149
59.030,87.1995
59.040,97.8585
59.050,89.0038
59.060,87.4769
59.070,86.1715
59.080,93.8254
59.090,94.5887
59.100,84.7790
59.110,89.6982
59.120,85.8417
59.130,89.6577
59.140,91.2680
59.150,90.0353
59.160,92.2186
59.170,89.7591
59.180,88.5319
59.190,81.7099
59.200,90.0469
59.210,83.0369
59.220,88.9197
59.230,83.6783
59.240,82.3346
59.250,89.8910
59.260,81.7080
59.270,83.4749
59.280,93.0119
59.290,90.6308
59.300,91.6251
59.310,87.8387
59.320,84.2699
59.330,85.2998
59.340,78.8696
59.350,81.6840
59.360,90.1113
59.370,90.9985
59.380,79.4134
59.390,78.4871
59.400,80.1887
59.410,88.0045
59.420,79.1201
59.430,84.5406
59.440,86.2047
59.450,77.3139
59.460,75.6933
59.470,81.5980
59.480,77.1373
59.490,77.7974
59.500,75.0845
59.510,82.6714
59.520,88.4724
59.530,81.4986
59.540,83.9482
59.550,77.2746
59.560,79.9928
59.570,81.9213
59.580,86.0484
59.590,79.3761
59.600,78.3496
59.610,74.5024
59.620,86.6868
59.630,75.2583
59.640,75.3028
59.650,80.3166
59.660,81.4958
59.670,87.7098
59.680,86.6524
59.690,78.9929
59.700,78.8548
59.710,85.1590
59.720,80.1577
59.730,77.6047
59.740,85.1136
59.750,81.0989
59.760,78.2162
59.770,75.8978
59.780,84.4633
59.790,75.4694
59.800,82.5966
59.810,76.7644
59.820,85.7875
59.830,82.5217
59.840,89.0414
59.850,87.4764
59.860,88.0761
59.870,77.7504
59.880,88.3709
59.890,85.1135
59.900,89.1027
59.910,86.3664
59.920,84.5982
59.930,81.9224
59.940,79.4157
59.950,91.1910
59.960,80.2077
59.970,85.0185
59.980,90.1963
59.990,84.8034
