t_s,envelope_uV
0.000,69.7535
0.010,76.6691
0.020,77.8835
0.030,66.6855
0.040,69.5594
0.050,67.8637
0.060,72.7892
0.070,76.1308
0.080,76.0327
0.090,77.2575
0.100,74.0192
0.110,71.1740
0.120,76.2186
0.130,80.3178
0.140,69.9224
0.150,80.1793
0.160,70.1241
0.170,84.3599
0.180,72.9403
0.190,73.2724
0.200,82.7143
0.210,75.1791
0.220,73.8799
0.230,70.9937
0.240,80.6941
0.250,81.3419
0.260,83.1689
0.270,71.7023
0.280,78.0722
0.290,76.8023
0.300,72.1942
0.310,71.7875
0.320,81.2606
0.330,83.7160
0.340,73.7734
0.350,78.6061
0.360,77.3251
0.370,84.9129
0.380,74.2835
0.390,84.7858
0.400,82.9080
0.410,74.8151
0.420,72.6595
0.430,79.2950
0.440,72.0228
0.450,73.7340
0.460,83.6054
0.470,74.8544
0.480,80.5719
0.490,77.9152
0.500,76.2201
0.510,75.9197
0.520,71.0144
0.530,82.6253
0.540,71.3617
0.550,73.4347
0.560,70.6659
0.570,78.1686
0.580,83.5315
0.590,74.2755
0.600,83.0342
0.610,77.9194
0.620,72.1662
0.630,78.6185
0.640,80.7370
0.650,80.0761
0.660,67.3786
0.670,81.4193
0.680,71.1709
0.690,78.2775
0.700,66.3249
0.710,79.8971
0.720,79.6818
0.730,67.7325
0.740,74.6527
0.750,67.8025
0.760,70.3159
0.770,77.7006
0.780,69.6523
0.790,69.0915
0.800,76.1897
0.810,70.8437
0.820,65.1885
0.830,76.1778
0.840,64.1253
0.850,67.6935
0.860,69.9224
0.870,70.4240
0.880,75.7346
0.890,65.5624
0.900,68.4940
0.910,74.5463
0.920,72.4757
0.930,66.1654
0.940,67.7301
0.950,62.0685
0.960,64.7013
0.970,71.1456
0.980,68.5349
0.990,73.5246
1.000,66.5065
1.010,63.1126
1.020,66.8279
1.030,67.2728
1.040,66.0076
1.050,65.5939
1.060,62.5556
1.070,73.3162
1.080,61.2768
1.090,62.7139
1.100,67.2922
1.110,69.8826
1.120,66.7139
1.130,61.0119
1.140,67.4709
1.150,64.9021
1.160,61.4250
1.170,65.2299
1.180,64.1136
1.190,75.1096
1.200,74.3546
1.210,74.6938
1.220,74.1441
1.230,75.0521
1.240,65.2701
1.250,64.4274
1.260,64.9463
1.270,76.1285
1.280,64.4374
1.290,65.1182
1.300,75.7259
1.310,74.9592
1.320,70.9659
1.330,74.9319
1.340,73.3036
1.350,70.1249
1.360,72.8650
1.370,71.7555
1.380,66.9238
1.390,70.6394
1.400,66.7170
1.410,67.5878
1.420,77.9701
1.430,67.2812
1.440,79.6626
1.450,80.1227
1.460,80.3436
1.470,71.3121
1.480,79.6453
1.490,68.9324
1.500,70.3769
1.510,77.9266
1.520,74.1794
1.530,72.6692
1.540,77.7939
1.550,80.5521
1.560,80.7698
1.570,77.7701
1.580,70.0281
1.590,83.7096
1.600,73.0404
1.610,82.6054
1.620,76.5626
1.630,74.8657
1.640,82.0473
1.650,76.1510
1.660,85.2277
1.670,79.6542
1.680,77.7809
1.690,82.2087
1.700,76.3621
1.710,84.6224
1.720,85.1227
1.730,73.2782
1.740,81.1189
1.750,81.0564
1.760,77.4167
1.770,73.6233
1.780,76.2472
1.790,83.4430
1.800,74.3296
1.810,79.9677
1.820,80.1894
1.830,83.4717
1.840,77.0358
1.850,75.7295
1.860,72.0784
1.870,79.2100
1.880,74.2527
1.890,77.2168
1.900,79.6680
1.910,81.6325
1.920,81.5108
1.930,79.2993
1.940,84.8119
1.950,75.5257
1.960,71.9023
1.970,76.3386
1.980,71.4140
1.990,70.3523
2.000,75.6564
2.010,78.6162
2.020,75.2601
2.030,73.1464
2.040,81.0722
2.050,72.6804
2.060,80.0148
2.070,72.4060
2.080,70.9321
2.090,75.4713
2.100,73.4473
2.110,69.8661
2.120,74.7061
2.130,73.9712
2.140,67.9735
2.150,67.8442
2.160,69.2547
2.170,66.7216
2.180,66.5107
2.190,77.1295
2.200,67.3266
2.210,75.8714
2.220,77.8058
2.230,67.8747
2.240,63.6936
2.250,71.2773
2.260,65.6121
2.270,66.8543
2.280,68.1698
2.290,68.9777
2.300,66.2154
2.310,65.6082
2.320,71.6768
2.330,71.4194
2.340,72.3830
2.350,70.0141
2.360,68.5468
2.370,63.7014
2.380,64.9933
2.390,74.5840
2.400,74.2479
2.410,62.6538
2.420,63.0311
2.430,67.9681
2.440,60.4198
2.450,74.2366
2.460,67.9940
2.470,61.0734
2.480,66.1281
2.490,64.2581
2.500,65.9196
2.510,68.2352
2.520,60.8863
2.530,74.7279
2.540,60.6086
2.550,60.5971
2.560,70.3660
2.570,62.2167
2.580,61.2691
2.590,62.2011
2.600,69.9963
2.610,74.5284
2.620,72.3830
2.630,63.0427
2.640,61.9020
2.650,65.6358
2.660,72.5904
2.670,70.5307
2.680,70.9808
2.690,74.4787
2.700,73.8141
2.710,76.4814
2.720,73.6369
2.730,64.3344
2.740,63.8931
2.750,72.4974
2.760,65.4141
2.770,64.2042
2.780,73.5108
2.790,67.6338
2.800,76.0236
2.810,68.9321
2.820,74.7808
2.830,79.9829
2.840,70.2933
2.850,75.0129
2.860,75.4597
2.870,67.6631
2.880,71.3249
2.890,80.4828
2.900,73.4786
2.910,75.5428
2.920,81.6876
2.930,81.6886
2.940,82.2045
2.950,81.3468
2.960,74.2980
2.970,78.2256
2.980,70.7413
2.990,79.1065
3.000,71.9992
3.010,77.8757
3.020,70.5877
3.030,77.5770
3.040,80.8616
3.050,76.5885
3.060,74.0597
3.070,80.7657
3.080,77.2702
3.090,79.7099
3.100,75.7216
3.110,71.5056
3.120,78.7044
3.130,82.5672
3.140,73.5030
3.150,74.4600
3.160,79.6964
3.170,73.3856
3.180,81.1621
3.190,72.9099
3.200,72.8537
3.210,73.1960
3.220,75.4287
3.230,72.4051
3.240,81.2374
3.250,79.1173
3.260,84.9501
3.270,72.6035
3.280,72.5207
3.290,85.7031
3.300,74.3676
3.310,77.1887
3.320,85.2138
3.330,83.1918
3.340,81.8353
3.350,71.3555
3.360,73.4405
3.370,79.8094
3.380,82.5352
3.390,84.9554
3.400,74.6018
3.410,75.5780
3.420,81.5762
3.430,73.0901
3.440,83.0804
3.450,82.7605
3.460,70.0299
3.470,78.5247
3.480,70.3873
3.490,79.1917
3.500,81.8819
3.510,70.6636
3.520,80.1741
3.530,80.4530
3.540,69.4065
3.550,72.0881
3.560,80.3234
3.570,72.8335
3.580,70.9176
3.590,79.8670
3.600,66.7177
3.610,65.2706
3.620,65.8745
3.630,67.1684
3.640,67.0464
3.650,64.2869
3.660,69.2193
3.670,70.6250
3.680,66.9655
3.690,70.1014
3.700,68.9556
3.710,65.5473
3.720,66.7889
3.730,75.0771
3.740,74.6230
3.750,68.2137
3.760,76.4732
3.770,65.9314
3.780,62.5414
3.790,65.3706
3.800,67.7369
3.810,66.2499
3.820,72.6407
3.830,67.8025
3.840,63.2022
3.850,64.0330
3.860,63.3904
3.870,71.7448
3.880,71.3861
3.890,71.8575
3.900,68.4492
3.910,74.4486
3.920,68.3620
3.930,69.6471
3.940,61.0604
3.950,74.8689
3.960,74.4937
3.970,66.4900
3.980,69.7999
3.990,66.0093
4.000,72.6316
4.010,73.4298
4.020,73.1148
4.030,75.3331
4.040,71.6456
4.050,67.9415
4.060,62.6522
4.070,67.7383
4.080,61.6977
4.090,62.1966
4.100,69.9964
4.110,66.0037
4.120,75.5025
4.130,63.9005
4.140,70.1792
4.150,73.5765
4.160,70.5960
4.170,70.5502
4.180,77.6323
4.190,71.8695
4.200,70.6137
4.210,64.7413
4.220,70.1847
4.230,70.9587
4.240,65.5486
4.250,73.9467
4.260,71.7832
4.270,77.7368
4.280,80.0955
4.290,66.6714
4.300,74.9986
4.310,81.2193
4.320,67.6724
4.330,71.5653
4.340,71.1557
4.350,81.0326
4.360,68.9596
4.370,75.5872
4.380,71.3853
4.390,78.8143
4.400,78.2904
4.410,83.2759
4.420,77.9525
4.430,72.0099
4.440,80.7609
4.450,76.9055
4.460,82.9550
4.470,82.0332
4.480,74.4791
4.490,79.6084
4.500,76.8662
4.510,79.8002
4.520,83.0647
4.530,73.2836
4.540,84.8253
4.550,72.6618
4.560,76.8536
4.570,77.5834
4.580,78.9692
4.590,73.0404
4.600,72.0473
4.610,76.8132
4.620,73.7312
4.630,73.6042
4.640,82.2057
4.650,76.0641
4.660,79.4908
4.670,75.4080
4.680,72.3508
4.690,80.6496
4.700,80.7538
4.710,81.1125
4.720,76.6806
4.730,77.4473
4.740,72.2322
4.750,75.9897
4.760,82.3100
4.770,73.0951
4.780,76.3984
4.790,71.9964
4.800,79.8309
4.810,74.3909
4.820,71.5587
4.830,84.7721
4.840,84.0413
4.850,84.4037
4.860,72.2041
4.870,74.6770
4.880,81.0020
4.890,78.0923
4.900,75.9572
4.910,79.8456
4.920,71.7928
4.930,74.3835
4.940,69.2671
4.950,73.9056
4.960,70.2479
4.970,74.6833
4.980,67.6779
4.990,69.6264
5.000,79.7943
5.010,67.1084
5.020,76.2656
5.030,74.3110
5.040,77.8198
5.050,75.6567
5.060,70.8720
5.070,73.7268
5.080,67.7285
5.090,76.7325
5.100,67.1070
5.110,72.5183
5.120,72.2687
5.130,67.8991
5.140,71.9463
5.150,72.4358
5.160,65.5998
5.170,68.8305
5.180,63.2348
5.190,67.0482
5.200,64.6361
5.210,69.4333
5.220,61.5128
5.230,68.4142
5.240,75.8405
5.250,71.3127
5.260,61.0937
5.270,64.6374
5.280,64.3015
5.290,61.2381
5.300,67.0439
5.310,63.4619
5.320,60.6271
5.330,66.9220
5.340,61.7565
5.350,72.8373
5.360,62.5252
5.370,66.8914
5.380,62.5798
5.390,66.2947
5.400,68.9292
5.410,64.7549
5.420,65.8835
5.430,72.4471
5.440,63.8893
5.450,75.1761
5.460,73.5002
5.470,65.0020
5.480,72.0335
5.490,67.9373
5.500,72.9516
5.510,72.8295
5.520,71.2111
5.530,71.8252
5.540,73.5598
5.550,62.8731
5.560,77.2137
5.570,72.2392
5.580,71.3527
5.590,77.6267
5.600,67.8726
5.610,67.8840
5.620,73.5240
5.630,69.6748
5.640,78.6307
5.650,69.6842
5.660,72.7477
5.670,74.0995
5.680,68.1740
5.690,79.4798
5.700,67.1407
5.710,78.2858
5.720,79.4227
5.730,68.4230
5.740,72.3133
5.750,70.4980
5.760,80.3074
5.770,76.7658
5.780,82.5078
5.790,71.0680
5.800,78.3495
5.810,76.9292
5.820,80.1436
5.830,73.5973
5.840,76.5647
5.850,76.7600
5.860,81.9077
5.870,79.6353
5.880,76.7905
5.890,77.1830
5.900,82.6414
5.910,82.0117
5.920,73.2318
5.930,81.8719
5.940,82.1284
5.950,84.8575
5.960,71.9277
5.970,73.1576
5.980,72.1039
5.990,78.8090
6.000,73.7071
6.010,85.2070
6.020,81.2246
6.030,81.8211
6.040,80.1606
6.050,84.2412
6.060,85.5824
6.070,80.1592
6.080,80.3608
6.090,75.6540
6.100,82.8057
6.110,85.8051
6.120,74.2589
6.130,74.4053
6.140,81.2071
6.150,84.3108
6.160,77.3945
6.170,84.8626
6.180,86.0024
6.190,77.6832
6.200,72.2448
6.210,75.9021
6.220,73.2726
6.230,74.5458
6.240,83.5696
6.250,72.1713
6.260,78.2778
6.270,72.3149
6.280,73.0736
6.290,73.1787
6.300,71.2710
6.310,77.0115
6.320,69.8200
6.330,79.4806
6.340,70.1866
6.350,81.0604
6.360,71.3497
6.370,76.8113
6.380,73.0988
6.390,70.0903
6.400,73.7476
6.410,71.2684
6.420,70.2741
6.430,70.6116
6.440,66.7645
6.450,76.3727
6.460,70.8231
6.470,66.3380
6.480,66.6745
6.490,72.5622
6.500,72.0081
6.510,73.6548
6.520,72.8138
6.530,69.6779
6.540,77.9997
6.550,66.9456
6.560,70.2843
6.570,67.4146
6.580,64.9665
6.590,70.7181
6.600,74.4803
6.610,71.9126
6.620,68.2276
6.630,70.9398
6.640,72.9042
6.650,72.7673
6.660,74.1355
6.670,69.2973
6.680,65.5585
6.690,71.4076
6.700,68.5028
6.710,64.0070
6.720,65.4848
6.730,62.2858
6.740,66.5895
6.750,71.9067
6.760,62.9432
6.770,65.0476
6.780,62.5691
6.790,67.6987
6.800,63.4964
6.810,68.4887
6.820,73.2487
6.830,66.3853
6.840,70.2945
6.850,69.1161
6.860,67.5415
6.870,75.4281
6.880,62.2297
6.890,75.4247
6.900,65.3032
6.910,72.7739
6.920,67.3161
6.930,75.5959
6.940,69.6942
6.950,70.3182
6.960,76.8694
6.970,69.3509
6.980,70.3425
6.990,73.8430
7.000,76.8360
7.010,69.3178
7.020,72.2025
7.030,75.3945
7.040,67.6809
7.050,78.0408
7.060,66.4372
7.070,77.8875
7.080,73.9905
7.090,69.2830
7.100,68.0232
7.110,74.4447
7.120,69.0261
7.130,74.5551
7.140,75.6624
7.150,67.0536
7.160,70.8627
7.170,73.6963
7.180,70.9573
7.190,81.5803
7.200,78.5301
7.210,77.7087
7.220,81.4079
7.230,75.9664
7.240,79.1749
7.250,73.3768
7.260,80.5530
7.270,80.9095
7.280,71.8288
7.290,77.6160
7.300,80.3871
7.310,75.3704
7.320,81.4118
7.330,80.1868
7.340,83.5651
7.350,73.1024
7.360,71.8264
7.370,83.9510
7.380,79.5130
7.390,85.4744
7.400,84.5133
7.410,83.9436
7.420,84.7239
7.430,74.3683
7.440,73.2592
7.450,84.6198
7.460,73.2236
7.470,72.5597
7.480,73.9058
7.490,76.9918
7.500,83.0753
7.510,82.8441
7.520,85.4679
7.530,73.1670
7.540,76.3326
7.550,74.8853
7.560,83.5555
7.570,81.2175
7.580,80.4036
7.590,73.3289
7.600,83.3961
7.610,80.1977
7.620,81.4362
7.630,81.7784
7.640,79.1290
7.650,78.0530
7.660,71.2870
7.670,82.4998
7.680,84.7673
7.690,83.3675
7.700,84.5648
7.710,75.3933
7.720,82.1167
7.730,83.9169
7.740,76.5290
7.750,69.9920
7.760,81.4864
7.770,79.4251
7.780,80.7450
7.790,74.4219
7.800,78.4555
7.810,78.1489
7.820,81.0606
7.830,68.4221
7.840,76.1301
7.850,67.9907
7.860,76.7573
7.870,74.4082
7.880,72.7680
7.890,74.5358
7.900,77.1595
7.910,75.9766
7.920,69.7840
7.930,75.4555
7.940,64.5357
7.950,75.3573
7.960,70.9556
7.970,65.3767
7.980,73.9887
7.990,75.4617
8.000,74.5304
8.010,63.7415
8.020,71.1059
8.030,75.1217
8.040,64.8817
8.050,74.6297
8.060,74.1453
8.070,69.3446
8.080,65.7948
8.090,62.4107
8.100,63.8890
8.110,69.9046
8.120,69.1142
8.130,64.2611
8.140,62.0361
8.150,72.3607
8.160,61.7939
8.170,66.1040
8.180,61.0402
8.190,63.9023
8.200,70.3791
8.210,69.8920
8.220,65.3963
8.230,62.4688
8.240,71.8055
8.250,70.9822
8.260,63.3228
8.270,68.0846
8.280,65.3453
8.290,68.8751
8.300,70.4614
8.310,63.6638
8.320,69.8472
8.330,66.7739
8.340,71.8778
8.350,73.5635
8.360,75.6900
8.370,63.8485
8.380,64.4860
8.390,72.6506
8.400,71.7977
8.410,76.7412
8.420,64.0640
8.430,66.2999
8.440,67.4683
8.450,64.9697
8.460,63.8986
8.470,75.0643
8.480,68.1040
8.490,76.2361
8.500,66.3376
8.510,70.8702
8.520,68.4046
8.530,72.1231
8.540,72.2347
8.550,75.5950
8.560,79.9284
8.570,78.5391
8.580,81.4178
8.590,70.3963
8.600,74.0590
8.610,70.9802
8.620,80.8305
8.630,78.6701
8.640,76.3532
8.650,75.8132
8.660,79.4941
8.670,80.1338
8.680,78.2227
8.690,75.1621
8.700,75.0470
8.710,72.9483
8.720,79.7610
8.730,81.4642
8.740,74.8007
8.750,76.5378
8.760,80.8990
8.770,76.9920
8.780,75.0791
8.790,71.6547
8.800,78.2766
8.810,73.6599
8.820,80.5895
8.830,78.1717
8.840,81.7571
8.850,81.2733
8.860,76.8389
8.870,76.4595
8.880,75.7331
8.890,73.7805
8.900,80.0045
8.910,73.2542
8.920,82.7859
8.930,81.8217
8.940,79.0975
8.950,76.4129
8.960,72.9738
8.970,86.6478
8.980,73.8603
8.990,84.4231
9.000,73.4635
9.010,86.5881
9.020,74.6761
9.030,79.6603
9.040,72.8828
9.050,84.4456
9.060,72.2315
9.070,81.2945
9.080,81.4229
9.090,75.1640
9.100,71.8897
9.110,83.6208
9.120,75.0657
9.130,82.2455
9.140,72.6159
9.150,72.2762
9.160,79.0565
9.170,76.1336
9.180,76.7811
9.190,73.7976
9.200,73.9183
9.210,81.1904
9.220,75.0539
9.230,76.9488
9.240,70.3996
9.250,71.8757
9.260,71.2168
9.270,76.7914
9.280,78.1205
9.290,80.1583
9.300,79.6985
9.310,72.1912
9.320,77.6159
9.330,67.7959
9.340,77.3435
9.350,73.5036
9.360,72.7299
9.370,69.9634
9.380,71.9187
9.390,77.4819
9.400,72.3927
9.410,69.2603
9.420,69.7112
9.430,71.6287
9.440,67.5930
9.450,75.9454
9.460,66.4952
9.470,73.5672
9.480,76.7684
9.490,67.0930
9.500,70.4580
9.510,64.2480
9.520,66.2202
9.530,64.9587
9.540,71.3262
9.550,75.6535
9.560,62.5181
9.570,64.4541
9.580,65.4247
9.590,70.8375
9.600,74.3656
9.610,70.4660
9.620,72.6963
9.630,72.9892
9.640,73.4457
9.650,70.4266
9.660,69.6955
9.670,75.0718
9.680,74.5769
9.690,61.4956
9.700,72.2471
9.710,63.2206
9.720,71.3124
9.730,63.7856
9.740,68.7728
9.750,70.3820
9.760,68.0923
9.770,75.3089
9.780,70.7460
9.790,75.2504
9.800,64.2275
9.810,71.0333
9.820,66.4014
9.830,64.7426
9.840,69.9729
9.850,66.7194
9.860,76.8200
9.870,73.5136
9.880,66.7847
9.890,76.9682
9.900,72.9633
9.910,69.8397
9.920,65.4786
9.930,71.1857
9.940,71.0841
9.950,72.4866
9.960,77.8825
9.970,72.2549
9.980,75.2735
9.990,74.9633
10.000,70.3183
10.010,70.8769
10.020,76.3638
10.030,81.5577
10.040,74.3365
10.050,70.4877
10.060,73.9076
10.070,79.3796
10.080,70.8845
10.090,69.1369
10.100,71.8414
10.110,78.0561
10.120,76.7049
10.130,74.0331
10.140,73.4294
10.150,75.4142
10.160,77.2323
10.170,73.6148
10.180,76.8376
10.190,82.7342
10.200,72.0521
10.210,74.2146
10.220,82.0091
10.230,71.9827
10.240,77.3031
10.250,86.1688
10.260,85.7080
10.270,81.6630
10.280,82.6882
10.290,74.8265
10.300,80.8566
10.310,76.6153
10.320,78.5260
10.330,76.8760
10.340,78.6040
10.350,81.8540
10.360,86.0853
10.370,84.0972
10.380,81.7014
10.390,82.6480
10.400,76.1248
10.410,77.7054
10.420,76.2933
10.430,75.9410
10.440,78.6307
10.450,86.4457
10.460,72.1264
10.470,75.3042
10.480,75.7321
10.490,77.5849
10.500,78.6097
10.510,75.5089
10.520,74.4553
10.530,83.3895
10.540,73.7105
10.550,71.2770
10.560,79.3337
10.570,75.7388
10.580,73.4681
10.590,72.1515
10.600,76.4286
10.610,73.5136
10.620,83.4610
10.630,76.4293
10.640,80.5897
10.650,71.3365
10.660,82.8061
10.670,77.1240
10.680,80.9761
10.690,81.4339
10.700,78.4537
10.710,80.4407
10.720,75.9789
10.730,73.0299
10.740,66.8434
10.750,80.0933
10.760,76.2985
10.770,70.9810
10.780,74.8310
10.790,69.7492
10.800,78.4748
10.810,66.6082
10.820,71.2942
10.830,72.9556
10.840,66.2615
10.850,72.2850
10.860,75.0467
10.870,65.8717
10.880,67.0181
10.890,63.1095
10.900,66.7854
10.910,68.9139
10.920,70.0627
10.930,70.4047
10.940,69.9239
10.950,68.8319
10.960,64.7478
10.970,69.2107
10.980,61.5050
10.990,70.0212
11.000,70.4415
11.010,63.4477
11.020,74.8483
11.030,66.1623
11.040,72.3247
11.050,63.9204
11.060,66.5900
11.070,63.9145
11.080,69.7139
11.090,62.3956
11.100,66.6591
11.110,75.1937
11.120,73.4579
11.130,65.7553
11.140,62.4644
11.150,67.7161
11.160,64.2655
11.170,67.5270
11.180,63.4990
11.190,75.9754
11.200,74.2571
11.210,62.1902
11.220,73.8178
11.230,64.9081
11.240,63.1405
11.250,70.5589
11.260,76.1004
11.270,67.3639
11.280,68.6739
11.290,74.1278
11.300,75.8983
11.310,66.7224
11.320,70.5227
11.330,70.6890
11.340,72.4931
11.350,76.4886
11.360,71.1836
11.370,74.0146
11.380,78.9503
11.390,80.0621
11.400,73.8863
11.410,71.7794
11.420,81.2360
11.430,76.6800
11.440,67.4806
11.450,68.0036
11.460,68.5978
11.470,73.1488
11.480,75.0211
11.490,73.0832
11.500,82.4801
11.510,82.9698
11.520,82.5607
11.530,74.8140
11.540,76.2054
11.550,82.3453
11.560,70.7694
11.570,76.5969
11.580,73.8688
11.590,75.3849
11.600,85.3785
11.610,85.2120
11.620,78.0084
11.630,79.5379
11.640,73.6052
11.650,73.4059
11.660,73.9445
11.670,74.7945
11.680,83.3473
11.690,74.9029
11.700,79.1556
11.710,77.6970
11.720,77.7877
11.730,77.0307
11.740,73.2052
11.750,73.9259
11.760,86.6923
11.770,80.8366
11.780,83.8094
11.790,80.4487
11.800,84.7337
11.810,85.5410
11.820,83.0329
11.830,82.6035
11.840,77.9742
11.850,81.2674
11.860,83.1131
11.870,77.7385
11.880,85.5478
11.890,75.6470
11.900,77.0779
11.910,84.5743
11.920,85.8583
11.930,79.6614
11.940,83.5766
11.950,73.0241
11.960,74.1431
11.970,85.4424
11.980,85.0723
11.990,84.2489
12.000,84.1232
12.010,84.7801
12.020,78.4017
12.030,69.8367
12.040,78.5670
12.050,74.8474
12.060,75.4673
12.070,81.1459
12.080,74.6762
12.090,73.5846
12.100,78.9938
12.110,78.8369
12.120,75.1950
12.130,79.5465
12.140,76.0871
12.150,80.7789
12.160,78.0263
12.170,75.4698
12.180,77.6304
12.190,74.6666
12.200,67.4745
12.210,73.3794
12.220,72.1744
12.230,66.3119
12.240,69.4559
12.250,72.9118
12.260,73.4108
12.270,66.9877
12.280,66.0097
12.290,66.2029
12.300,71.7638
12.310,68.7544
12.320,66.4674
12.330,65.8114
12.340,76.9375
12.350,71.2440
12.360,67.8185
12.370,71.2013
12.380,72.3046
12.390,66.2443
12.400,63.7031
12.410,63.2958
12.420,73.4418
12.430,68.2265
12.440,72.8907
12.450,67.5674
12.460,63.0125
12.470,65.9123
12.480,63.7894
12.490,68.1351
12.500,74.8697
12.510,65.3960
12.520,64.9904
12.530,74.9740
12.540,73.7115
12.550,73.5122
12.560,73.2395
12.570,68.8812
12.580,67.6066
12.590,71.4748
12.600,65.5296
12.610,72.5030
12.620,68.1530
12.630,72.5234
12.640,65.0681
12.650,64.7123
12.660,69.5547
12.670,65.9465
12.680,66.2356
12.690,75.4354
12.700,74.9743
12.710,69.1427
12.720,69.1064
12.730,70.2547
12.740,69.6722
12.750,73.2642
12.760,74.3775
12.770,71.8686
12.780,66.4290
12.790,70.7380
12.800,77.9048
12.810,71.9354
12.820,68.9519
12.830,74.8557
12.840,76.9047
12.850,69.9759
12.860,73.3888
12.870,72.8654
12.880,68.2234
12.890,76.2549
12.900,74.1580
12.910,69.8688
12.920,80.3749
12.930,82.2563
12.940,69.2692
12.950,79.2388
12.960,70.2902
12.970,81.8613
12.980,74.3870
12.990,78.7119
13.000,70.9354
13.010,80.0604
13.020,83.3454
13.030,79.9920
13.040,79.0814
13.050,84.4790
13.060,80.9061
13.070,83.9622
13.080,72.6922
13.090,84.3803
13.100,73.2533
13.110,76.2331
13.120,83.8703
13.130,84.4202
13.140,75.3205
13.150,81.2428
13.160,74.2072
13.170,79.2169
13.180,82.7876
13.190,81.4598
13.200,81.6438
13.210,82.1190
13.220,79.9801
13.230,82.0718
13.240,87.0356
13.250,82.0004
13.260,84.5916
13.270,82.6575
13.280,80.0746
13.290,74.1819
13.300,77.5800
13.310,86.3340
13.320,85.1070
13.330,74.5209
13.340,73.9541
13.350,82.1130
13.360,73.4696
13.370,72.5890
13.380,85.8609
13.390,73.6738
13.400,82.4797
13.410,72.1308
13.420,73.9543
13.430,73.1501
13.440,79.2352
13.450,83.5823
13.460,78.8909
13.470,83.6658
13.480,69.9448
13.490,72.7752
13.500,74.7323
13.510,77.6189
13.520,82.0188
13.530,79.4929
13.540,74.6069
13.550,70.4873
13.560,73.0903
13.570,80.8859
13.580,80.7097
13.590,77.0520
13.600,70.1071
13.610,70.7408
13.620,79.8239
13.630,66.2630
13.640,75.6570
13.650,67.4337
13.660,74.2070
13.670,67.1704
13.680,77.2481
13.690,68.7187
13.700,66.7332
13.710,65.2824
13.720,65.0307
13.730,68.2289
13.740,67.3645
13.750,72.9755
13.760,65.0529
13.770,75.1969
13.780,63.7055
13.790,68.9311
13.800,69.9086
13.810,73.6774
13.820,73.4319
13.830,76.1158
13.840,62.0811
13.850,67.6646
13.860,70.6902
13.870,65.8497
13.880,74.2699
13.890,63.7345
13.900,74.7059
13.910,69.8178
13.920,75.7546
13.930,73.3083
13.940,64.7910
13.950,75.8565
13.960,69.7270
13.970,73.8092
13.980,64.4172
13.990,64.2414
14.000,63.1984
14.010,66.6080
14.020,67.9221
14.030,72.3836
14.040,62.1728
14.050,76.0111
14.060,68.9098
14.070,71.5091
14.080,75.9629
14.090,63.6108
14.100,71.6181
14.110,76.5713
14.120,64.0063
14.130,66.2486
14.140,69.0318
14.150,64.1279
14.160,69.1711
14.170,76.7637
14.180,68.8475
14.190,77.0011
14.200,77.0455
14.210,77.6336
14.220,79.0884
14.230,76.2133
14.240,66.8885
14.250,67.5228
14.260,81.1065
14.270,71.9559
14.280,72.1892
14.290,76.2760
14.300,71.7459
14.310,74.7455
14.320,74.1458
14.330,81.4709
14.340,80.8734
14.350,74.2442
14.360,77.4986
14.370,76.0599
14.380,74.1345
14.390,79.9973
14.400,78.6552
14.410,72.7094
14.420,74.8808
14.430,70.9681
14.440,83.0181
14.450,80.7643
14.460,84.7623
14.470,82.0352
14.480,72.2174
14.490,73.5716
14.500,77.1344
14.510,84.6684
14.520,81.0852
14.530,72.8419
14.540,78.6135
14.550,80.5143
14.560,82.7313
14.570,76.7180
14.580,79.5440
14.590,75.0828
14.600,80.9089
14.610,74.5211
14.620,85.6107
14.630,81.2348
14.640,86.7897
14.650,84.2149
14.660,80.2230
14.670,77.1350
14.680,74.2902
14.690,85.1435
14.700,77.1222
14.710,81.6556
14.720,78.9091
14.730,85.8421
14.740,80.9672
14.750,77.2209
14.760,84.3164
14.770,79.5898
14.780,85.9800
14.790,81.2569
14.800,80.5723
14.810,72.5825
14.820,78.4778
14.830,80.5682
14.840,77.3540
14.850,83.1925
14.860,85.1245
14.870,78.6227
14.880,81.0167
14.890,78.1850
14.900,84.1098
14.910,73.4699
14.920,83.3369
14.930,76.7859
14.940,77.8879
14.950,78.4522
14.960,82.6926
14.970,77.1843
14.980,71.1032
14.990,80.1269
15.000,78.8660
15.010,75.3331
15.020,77.5694
15.030,81.4758
15.040,84.7039
15.050,87.3749
15.060,82.6831
15.070,87.1612
15.080,80.9012
15.090,88.4636
15.100,80.2838
15.110,88.4610
15.120,83.7124
15.130,94.9652
15.140,84.1390
15.150,97.3200
15.160,93.5571
15.170,98.8006
15.180,90.8773
15.190,99.6222
15.200,99.6109
15.210,101.3574
15.220,92.4807
15.230,96.5479
15.240,94.3479
15.250,104.5315
15.260,99.9695
15.270,107.6196
15.280,106.6718
15.290,113.4780
15.300,104.2748
15.310,113.5626
15.320,116.2108
15.330,107.1903
15.340,110.8127
15.350,120.9987
15.360,117.2174
15.370,121.3273
15.380,114.6392
15.390,122.0418
15.400,116.4255
15.410,126.7792
15.420,127.0144
15.430,119.3757
15.440,123.8394
15.450,128.3613
15.460,132.0747
15.470,125.9467
15.480,122.4332
15.490,134.9737
15.500,133.9055
15.510,132.7198
15.520,138.3934
15.530,140.8657
15.540,140.6905
15.550,142.4855
15.560,134.7097
15.570,140.3767
15.580,136.9690
15.590,145.0866
15.600,136.4185
15.610,148.4146
15.620,150.6487
15.630,152.0129
15.640,140.7325
15.650,152.1014
15.660,151.3185
15.670,156.8506
15.680,148.7062
15.690,147.0061
15.700,158.1467
15.710,151.1389
15.720,159.3715
15.730,155.9244
15.740,163.0070
15.750,159.1083
15.760,164.4451
15.770,163.5512
15.780,160.4805
15.790,156.2424
15.800,164.1241
15.810,166.3987
15.820,173.4102
15.830,171.4260
15.840,168.2324
15.850,172.3300
15.860,176.0405
15.870,166.6973
15.880,171.9213
15.890,180.6201
15.900,174.8649
15.910,176.7538
15.920,173.1358
15.930,176.5864
15.940,176.3668
15.950,182.6871
15.960,175.4458
15.970,176.9528
15.980,180.6528
15.990,183.9709
16.000,181.6928
16.010,179.6132
16.020,185.8077
16.030,193.3537
16.040,187.8531
16.050,185.3154
16.060,191.6021
16.070,185.6333
16.080,188.3650
16.090,185.2298
16.100,186.6171
16.110,186.7812
16.120,183.0267
16.130,180.6025
16.140,180.5357
16.150,192.4763
16.160,190.5369
16.170,181.9079
16.180,189.7072
16.190,193.7599
16.200,188.1335
16.210,180.7270
16.220,179.8406
16.230,180.1101
16.240,193.3709
16.250,182.8759
16.260,182.3310
16.270,180.9302
16.280,189.6934
16.290,183.4164
16.300,192.9272
16.310,187.8700
16.320,193.6768
16.330,180.8482
16.340,185.2485
16.350,188.0776
16.360,189.4321
16.370,186.5151
16.380,192.5807
16.390,181.4989
16.400,183.5823
16.410,191.7107
16.420,186.9354
16.430,186.8412
16.440,192.0418
16.450,184.5370
16.460,179.7036
16.470,191.2708
16.480,185.7368
16.490,182.7099
16.500,179.7430
16.510,191.9357
16.520,189.4179
16.530,193.6022
16.540,180.0617
16.550,189.8750
16.560,187.5470
16.570,184.6379
16.580,184.9131
16.590,190.8926
16.600,186.4742
16.610,179.9200
16.620,183.9914
16.630,179.8101
16.640,180.4216
16.650,183.1219
16.660,186.1131
16.670,193.9191
16.680,185.1049
16.690,185.0339
16.700,186.3302
16.710,179.8502
16.720,187.8641
16.730,181.1886
16.740,184.6963
16.750,182.5490
16.760,191.1975
16.770,183.2141
16.780,182.8092
16.790,192.5300
16.800,182.8854
16.810,182.9022
16.820,189.5451
16.830,186.3793
16.840,193.1125
16.850,182.6938
16.860,184.1863
16.870,190.7198
16.880,181.2055
16.890,181.5981
16.900,193.7967
16.910,189.0394
16.920,180.3654
16.930,191.8380
16.940,192.8225
16.950,186.5588
16.960,193.4095
16.970,180.2731
16.980,189.9690
16.990,186.4872
17.000,70.9450
17.010,67.5550
17.020,64.8033
17.030,66.7411
17.040,77.5795
17.050,74.4019
17.060,78.3820
17.070,79.8772
17.080,75.8659
17.090,74.2644
17.100,78.8143
17.110,77.4325
17.120,81.3583
17.130,72.7178
17.140,68.0258
17.150,75.8368
17.160,76.4573
17.170,79.2104
17.180,74.3485
17.190,73.5056
17.200,74.3156
17.210,75.9430
17.220,80.2855
17.230,81.3936
17.240,78.2248
17.250,73.3031
17.260,82.0706
17.270,82.3107
17.280,80.4634
17.290,83.1854
17.300,77.9059
17.310,76.9402
17.320,86.0570
17.330,82.0477
17.340,76.1923
17.350,84.6603
17.360,75.5198
17.370,86.0149
17.380,83.4368
17.390,78.2802
17.400,78.6997
17.410,74.2391
17.420,75.1562
17.430,79.0427
17.440,75.7303
17.450,73.8344
17.460,76.7410
17.470,81.9834
17.480,78.8176
17.490,85.1810
17.500,74.5258
17.510,86.4743
17.520,79.5863
17.530,84.6701
17.540,74.9566
17.550,87.0540
17.560,76.3502
17.570,82.4695
17.580,73.0107
17.590,81.2807
17.600,85.5485
17.610,82.0195
17.620,85.6376
17.630,86.5647
17.640,74.1945
17.650,81.0662
17.660,76.8047
17.670,86.1164
17.680,80.0259
17.690,76.2477
17.700,83.7659
17.710,76.3272
17.720,74.1145
17.730,78.2377
17.740,78.8533
17.750,75.5923
17.760,70.1939
17.770,76.2113
17.780,81.8463
17.790,71.5923
17.800,76.0300
17.810,71.9864
17.820,80.2533
17.830,78.5126
17.840,71.3158
17.850,67.7703
17.860,78.6508
17.870,74.5452
17.880,78.7805
17.890,75.0757
17.900,76.7205
17.910,79.7742
17.920,75.2294
17.930,68.7358
17.940,79.3279
17.950,65.1798
17.960,77.8711
17.970,72.7945
17.980,79.0266
17.990,76.2085
18.000,64.7018
18.010,64.1055
18.020,74.3343
18.030,71.3867
18.040,69.2555
18.050,65.1817
18.060,74.4300
18.070,72.8035
18.080,68.3604
18.090,73.6398
18.100,69.0393
18.110,67.4453
18.120,75.9455
18.130,69.0740
18.140,67.6493
18.150,65.6720
18.160,64.3774
18.170,62.8593
18.180,61.8461
18.190,67.3354
18.200,75.6341
18.210,69.2854
18.220,61.7738
18.230,62.8971
18.240,72.2845
18.250,73.6797
18.260,72.1556
18.270,72.2018
18.280,66.1286
18.290,72.3978
18.300,76.4661
18.310,67.4394
18.320,64.3857
18.330,70.1215
18.340,71.3570
18.350,72.7940
18.360,71.7309
18.370,66.1166
18.380,66.3661
18.390,64.9241
18.400,68.5057
18.410,66.5433
18.420,76.0812
18.430,65.4435
18.440,78.3457
18.450,76.3865
18.460,78.1221
18.470,73.5538
18.480,74.8503
18.490,65.5361
18.500,73.3401
18.510,67.1541
18.520,76.2068
18.530,79.7588
18.540,79.4817
18.550,68.2627
18.560,70.6819
18.570,71.3661
18.580,79.4771
18.590,68.6755
18.600,77.7706
18.610,75.3064
18.620,74.9654
18.630,76.6381
18.640,70.4154
18.650,72.0241
18.660,74.5017
18.670,73.4303
18.680,77.6966
18.690,82.3577
18.700,74.9475
18.710,76.4898
18.720,80.3646
18.730,71.9935
18.740,82.9576
18.750,84.1392
18.760,81.1692
18.770,82.5672
18.780,82.4614
18.790,78.3343
18.800,80.3219
18.810,74.7621
18.820,80.5250
18.830,74.6489
18.840,82.0433
18.850,86.4263
18.860,87.7794
18.870,86.1537
18.880,73.7278
18.890,73.4656
18.900,76.7625
18.910,77.9882
18.920,87.0285
18.930,79.9415
18.940,74.9415
18.950,79.7444
18.960,86.6902
18.970,79.8481
18.980,78.4125
18.990,86.5209
19.000,85.3760
19.010,80.4814
19.020,85.6996
19.030,73.4034
19.040,82.4086
19.050,77.8299
19.060,73.2198
19.070,78.6170
19.080,80.1693
19.090,86.1623
19.100,86.2784
19.110,77.2660
19.120,74.9783
19.130,82.8938
19.140,73.0670
19.150,75.2180
19.160,74.2585
19.170,77.1967
19.180,70.6167
19.190,74.6786
19.200,79.0571
19.210,73.9586
19.220,71.9845
19.230,75.7077
19.240,77.0059
19.250,80.8398
19.260,72.2382
19.270,71.5660
19.280,82.3821
19.290,70.3891
19.300,77.2681
19.310,71.4162
19.320,71.3439
19.330,80.9483
19.340,77.8476
19.350,75.8289
19.360,66.9581
19.370,65.6142
19.380,71.0691
19.390,71.3405
19.400,75.0297
19.410,73.7412
19.420,75.0430
19.430,76.1619
19.440,67.9062
19.450,76.1348
19.460,75.4839
19.470,65.6491
19.480,75.7047
19.490,72.9992
19.500,75.8849
19.510,74.4350
19.520,64.1991
19.530,74.9963
19.540,69.0366
19.550,65.1069
19.560,70.5092
19.570,76.4300
19.580,67.8145
19.590,70.4560
19.600,66.3153
19.610,66.3720
19.620,67.1731
19.630,68.1770
19.640,72.7761
19.650,65.3072
19.660,68.3397
19.670,70.6207
19.680,62.9735
19.690,62.5406
19.700,70.0331
19.710,73.4275
19.720,75.1979
19.730,75.2640
19.740,66.4985
19.750,74.9560
19.760,63.1130
19.770,63.8025
19.780,75.0278
19.790,63.2546
19.800,76.4044
19.810,75.3108
19.820,76.9074
19.830,71.7497
19.840,70.1936
19.850,78.2059
19.860,68.4497
19.870,71.4920
19.880,72.9410
19.890,74.4767
19.900,75.6858
19.910,68.0210
19.920,72.7807
19.930,73.5789
19.940,75.8276
19.950,77.1375
19.960,79.2509
19.970,68.3276
19.980,67.3122
19.990,80.0595
20.000,74.4515
20.010,77.3007
20.020,70.3444
20.030,79.1927
20.040,73.7431
20.050,71.2635
20.060,69.7427
20.070,83.0223
20.080,72.2785
20.090,80.7876
20.100,71.4987
20.110,70.7672
20.120,84.3461
20.130,83.1335
20.140,73.7598
20.150,78.6038
20.160,79.9106
20.170,78.2176
20.180,75.9896
20.190,85.0750
20.200,79.4520
20.210,72.4098
20.220,75.5362
20.230,73.1670
20.240,77.3809
20.250,75.9219
20.260,76.6446
20.270,74.6706
20.280,76.5715
20.290,86.7892
20.300,82.7414
20.310,76.0378
20.320,85.0711
20.330,87.2822
20.340,80.9451
20.350,81.6256
20.360,80.3963
20.370,76.1383
20.380,83.2175
20.390,78.7643
20.400,74.5553
20.410,76.7317
20.420,82.2476
20.430,87.2657
20.440,83.5333
20.450,79.2488
20.460,73.0266
20.470,77.7925
20.480,82.7383
20.490,73.7993
20.500,86.9756
20.510,79.5871
20.520,79.7760
20.530,84.3809
20.540,80.5650
20.550,73.2354
20.560,74.1489
20.570,79.5344
20.580,82.3029
20.590,75.4998
20.600,81.5244
20.610,83.8468
20.620,80.8455
20.630,77.3326
20.640,81.1385
20.650,77.8057
20.660,73.9813
20.670,69.7468
20.680,73.3084
20.690,80.0483
20.700,82.3383
20.710,71.6704
20.720,80.1056
20.730,68.1850
20.740,69.9390
20.750,77.4783
20.760,76.7069
20.770,71.2075
20.780,79.8064
20.790,75.8533
20.800,72.9282
20.810,79.1277
20.820,73.6397
20.830,73.6066
20.840,67.5776
20.850,66.2452
20.860,73.7920
20.870,76.5195
20.880,65.9842
20.890,74.9827
20.900,66.5184
20.910,76.0623
20.920,76.4527
20.930,70.7575
20.940,76.5259
20.950,64.0492
20.960,68.5820
20.970,75.7218
20.980,64.0432
20.990,67.2103
21.000,76.4391
21.010,76.0705
21.020,72.3265
21.030,75.9465
21.040,68.2523
21.050,63.3522
21.060,72.2392
21.070,64.8488
21.080,66.6913
21.090,65.3074
21.100,71.6590
21.110,64.2427
21.120,73.8094
21.130,73.2933
21.140,73.6528
21.150,65.0930
21.160,73.6321
21.170,63.2578
21.180,73.2173
21.190,76.8714
21.200,63.1869
21.210,70.9445
21.220,72.3659
21.230,72.2142
21.240,74.5231
21.250,67.8405
21.260,71.2153
21.270,66.3321
21.280,70.3563
21.290,70.3838
21.300,64.8487
21.310,64.9198
21.320,65.2060
21.330,68.3965
21.340,71.8731
21.350,79.9755
21.360,76.4568
21.370,79.0055
21.380,80.8973
21.390,80.9861
21.400,81.7140
21.410,74.4305
21.420,72.8570
21.430,71.2718
21.440,80.1683
21.450,69.6489
21.460,82.8012
21.470,71.4636
21.480,76.2359
21.490,74.5321
21.500,82.5470
21.510,84.1871
21.520,79.8392
21.530,78.5593
21.540,72.0507
21.550,80.0243
21.560,76.6183
21.570,74.0932
21.580,78.1603
21.590,72.0456
21.600,76.7868
21.610,84.2363
21.620,83.6592
21.630,73.9192
21.640,85.0017
21.650,76.2251
21.660,86.0177
21.670,79.9302
21.680,73.6871
21.690,79.8732
21.700,84.7601
21.710,87.9159
21.720,77.7049
21.730,83.6623
21.740,84.5583
21.750,79.1120
21.760,75.2866
21.770,78.5652
21.780,74.8501
21.790,75.4453
21.800,87.2689
21.810,77.7616
21.820,76.2574
21.830,77.6077
21.840,74.8214
21.850,78.1486
21.860,76.4848
21.870,81.7801
21.880,82.4184
21.890,86.4977
21.900,85.8582
21.910,80.1811
21.920,81.6286
21.930,76.0777
21.940,84.4083
21.950,84.9882
21.960,73.0199
21.970,82.1095
21.980,77.2018
21.990,72.3240
22.000,85.5992
22.010,75.5891
22.020,71.3184
22.030,75.1501
22.040,74.4758
22.050,79.7616
22.060,76.2448
22.070,80.1236
22.080,74.6676
22.090,83.4594
22.100,81.9504
22.110,75.6952
22.120,71.8545
22.130,68.2482
22.140,71.5795
22.150,81.6009
22.160,72.5101
22.170,75.9097
22.180,78.7114
22.190,68.6000
22.200,80.0772
22.210,66.6874
22.220,67.6837
22.230,69.3717
22.240,65.8046
22.250,77.7883
22.260,66.2819
22.270,65.0866
22.280,70.6176
22.290,74.0410
22.300,75.5334
22.310,69.1455
22.320,69.2200
22.330,76.7220
22.340,74.8206
22.350,63.5344
22.360,74.3130
22.370,69.2574
22.380,76.0101
22.390,67.9175
22.400,72.3576
22.410,68.7301
22.420,69.5113
22.430,74.2817
22.440,71.2255
22.450,68.1108
22.460,73.3019
22.470,67.8218
22.480,75.9924
22.490,67.9452
22.500,69.8078
22.510,76.5981
22.520,65.6740
22.530,67.5045
22.540,68.0628
22.550,69.6461
22.560,75.9353
22.570,65.1929
22.580,66.1417
22.590,67.6661
22.600,76.6274
22.610,69.1508
22.620,64.6504
22.630,73.7341
22.640,76.6019
22.650,66.1839
22.660,67.0658
22.670,67.0464
22.680,76.4776
22.690,65.9689
22.700,78.5397
22.710,70.8626
22.720,70.3778
22.730,75.9406
22.740,76.2334
22.750,67.7872
22.760,67.1846
22.770,71.7562
22.780,67.1593
22.790,69.1014
22.800,68.6148
22.810,68.6614
22.820,74.3594
22.830,73.0346
22.840,69.9406
22.850,70.5955
22.860,81.2484
22.870,69.2819
22.880,81.9021
22.890,77.5385
22.900,81.8014
22.910,82.6520
22.920,76.2060
22.930,79.3626
22.940,84.6180
22.950,73.5026
22.960,84.3669
22.970,72.5705
22.980,72.0208
22.990,85.4228
23.000,85.8451
23.010,72.4606
23.020,85.9525
23.030,75.6418
23.040,73.1151
23.050,73.3618
23.060,85.1859
23.070,76.5758
23.080,78.5798
23.090,78.2129
23.100,83.8166
23.110,78.3258
23.120,87.4928
23.130,77.2414
23.140,76.2208
23.150,85.9487
23.160,85.3258
23.170,79.9635
23.180,88.2487
23.190,76.3944
23.200,86.6507
23.210,80.1638
23.220,76.4211
23.230,86.4609
23.240,79.9376
23.250,83.2389
23.260,75.2149
23.270,85.9322
23.280,77.9870
23.290,78.2596
23.300,78.9797
23.310,85.8910
23.320,85.1659
23.330,76.6711
23.340,81.7643
23.350,77.4728
23.360,74.0058
23.370,82.5653
23.380,74.3078
23.390,77.7753
23.400,78.8420
23.410,83.6406
23.420,77.8441
23.430,71.4742
23.440,80.4912
23.450,75.9688
23.460,78.5123
23.470,84.6699
23.480,71.9781
23.490,74.1858
23.500,77.3224
23.510,77.0310
23.520,74.8341
23.530,74.5006
23.540,75.3074
23.550,68.8402
23.560,71.2494
23.570,77.7228
23.580,78.0321
23.590,71.0222
23.600,78.4354
23.610,80.2247
23.620,75.5659
23.630,78.6478
23.640,76.2079
23.650,73.9062
23.660,73.4592
23.670,69.2569
23.680,78.4849
23.690,68.8652
23.700,66.8354
23.710,69.3629
23.720,73.7510
23.730,77.9941
23.740,75.8238
23.750,72.2699
23.760,77.1721
23.770,76.5284
23.780,71.0648
23.790,63.2639
23.800,75.1248
23.810,68.3546
23.820,62.9318
23.830,67.7296
23.840,75.1549
23.850,70.6006
23.860,67.5428
23.870,62.9006
23.880,66.2055
23.890,72.3810
23.900,62.6706
23.910,68.8232
23.920,64.6194
23.930,74.4484
23.940,72.4486
23.950,74.2654
23.960,63.1680
23.970,63.5028
23.980,75.1703
23.990,68.7286
24.000,76.3585
24.010,63.3206
24.020,62.6972
24.030,69.5575
24.040,76.5410
24.050,64.2098
24.060,76.8381
24.070,63.6527
24.080,68.0028
24.090,69.7456
24.100,69.9172
24.110,76.4812
24.120,68.6841
24.130,74.3808
24.140,77.7272
24.150,66.9593
24.160,77.2698
24.170,74.2508
24.180,67.2579
24.190,68.1574
24.200,67.0276
24.210,68.0929
24.220,76.9346
24.230,71.9388
24.240,67.3647
24.250,68.4657
24.260,78.4634
24.270,82.2046
24.280,74.2284
24.290,69.0124
24.300,73.7654
24.310,81.9697
24.320,83.1899
24.330,81.4818
24.340,78.2154
24.350,78.2795
24.360,70.2566
24.370,73.5235
24.380,84.5087
24.390,75.8809
24.400,77.2090
24.410,83.4831
24.420,83.1475
24.430,77.5493
24.440,77.9358
24.450,84.4577
24.460,80.5034
24.470,84.3395
24.480,72.8836
24.490,75.8344
24.500,85.6056
24.510,82.5045
24.520,74.7979
24.530,79.8421
24.540,81.1376
24.550,76.9580
24.560,80.4491
24.570,82.0998
24.580,86.3636
24.590,77.2597
24.600,74.2881
24.610,80.7962
24.620,80.6616
24.630,83.5414
24.640,84.4485
24.650,78.5154
24.660,75.6989
24.670,83.2491
24.680,83.7211
24.690,73.9640
24.700,76.2327
24.710,81.8549
24.720,87.4638
24.730,79.2293
24.740,75.3795
24.750,82.7208
24.760,84.4631
24.770,79.6031
24.780,73.0186
24.790,85.7151
24.800,83.1755
24.810,75.1586
24.820,73.9510
24.830,80.7437
24.840,72.0794
24.850,80.9376
24.860,78.1040
24.870,71.3646
24.880,74.1907
24.890,79.9742
24.900,82.9200
24.910,80.9348
24.920,72.3631
24.930,78.9118
24.940,71.4206
24.950,72.1860
24.960,74.6932
24.970,72.1675
24.980,78.3629
24.990,79.0469
25.000,76.7191
25.010,81.4005
25.020,70.8965
25.030,77.6466
25.040,72.2884
25.050,73.5569
25.060,75.6381
25.070,72.6116
25.080,73.8454
25.090,75.7512
25.100,67.3808
25.110,71.0828
25.120,67.5624
25.130,72.5607
25.140,76.9768
25.150,69.5122
25.160,67.3210
25.170,72.4425
25.180,66.5722
25.190,70.0953
25.200,68.8096
25.210,66.6448
25.220,73.1054
25.230,65.7944
25.240,74.5512
25.250,65.8800
25.260,62.9978
25.270,64.3814
25.280,70.8412
25.290,72.1751
25.300,74.1488
25.310,75.7616
25.320,64.5925
25.330,64.5970
25.340,70.6854
25.350,76.5640
25.360,73.2414
25.370,76.2738
25.380,73.6471
25.390,65.9682
25.400,75.5312
25.410,68.1527
25.420,75.6044
25.430,72.2573
25.440,64.4391
25.450,70.7884
25.460,65.9287
25.470,72.8465
25.480,76.7021
25.490,76.8517
25.500,65.4247
25.510,75.0754
25.520,66.5891
25.530,66.1803
25.540,72.4440
25.550,65.9356
25.560,69.3881
25.570,71.8270
25.580,70.3630
25.590,71.4734
25.600,76.7369
25.610,79.4430
25.620,78.9971
25.630,79.4839
25.640,71.1889
25.650,66.6910
25.660,77.0722
25.670,75.7825
25.680,68.4547
25.690,70.0939
25.700,72.9144
25.710,79.3656
25.720,69.4611
25.730,79.3026
25.740,70.8415
25.750,80.7697
25.760,82.7066
25.770,79.5221
25.780,73.6961
25.790,84.6873
25.800,73.3642
25.810,71.1471
25.820,79.9733
25.830,72.7860
25.840,71.4375
25.850,76.5345
25.860,75.8997
25.870,76.3974
25.880,86.4422
25.890,82.9292
25.900,83.7895
25.910,73.4070
25.920,81.8154
25.930,87.5366
25.940,74.1914
25.950,74.3124
25.960,84.7802
25.970,83.6706
25.980,79.4567
25.990,81.1243
26.000,78.5922
26.010,86.1494
26.020,76.0649
26.030,76.1480
26.040,85.4887
26.050,81.9049
26.060,84.9553
26.070,80.0946
26.080,86.8889
26.090,81.1685
26.100,82.0851
26.110,82.7619
26.120,82.6092
26.130,76.2517
26.140,79.8183
26.150,87.4701
26.160,76.7300
26.170,77.0984
26.180,75.6242
26.190,85.5403
26.200,77.4774
26.210,79.4368
26.220,76.9580
26.230,80.7801
26.240,80.5688
26.250,83.8393
26.260,80.1851
26.270,74.4544
26.280,79.8579
26.290,83.6189
26.300,84.9869
26.310,75.8954
26.320,77.8912
26.330,71.8892
26.340,79.6091
26.350,83.8707
26.360,82.8592
26.370,82.1270
26.380,70.2078
26.390,82.6527
26.400,69.2063
26.410,73.5293
26.420,75.5817
26.430,75.4344
26.440,68.4315
26.450,78.2585
26.460,75.2517
26.470,81.4731
26.480,71.3626
26.490,81.1560
26.500,70.4867
26.510,76.7259
26.520,77.3181
26.530,73.9173
26.540,69.4751
26.550,65.3260
26.560,70.9034
26.570,75.0757
26.580,76.3685
26.590,76.6673
26.600,68.9724
26.610,70.8536
26.620,72.9387
26.630,75.9093
26.640,74.0161
26.650,68.5564
26.660,71.1822
26.670,72.4203
26.680,75.4122
26.690,65.2418
26.700,73.2557
26.710,68.1611
26.720,69.2078
26.730,72.1792
26.740,67.8292
26.750,70.6612
26.760,65.9640
26.770,67.8617
26.780,73.9999
26.790,68.9075
26.800,72.3152
26.810,64.4534
26.820,66.5318
26.830,76.6576
26.840,66.1662
26.850,74.1904
26.860,76.8111
26.870,72.3623
26.880,69.4673
26.890,65.9969
26.900,65.0848
26.910,75.8790
26.920,70.9603
26.930,68.3236
26.940,75.7960
26.950,77.2561
26.960,76.8817
26.970,78.4805
26.980,66.0157
26.990,77.0326
27.000,77.6214
27.010,71.6645
27.020,75.9404
27.030,75.7522
27.040,66.3827
27.050,70.8755
27.060,68.4376
27.070,80.8981
27.080,76.5387
27.090,68.6829
27.100,79.5257
27.110,75.4042
27.120,74.5269
27.130,74.9099
27.140,70.1531
27.150,76.7249
27.160,72.2570
27.170,76.0253
27.180,77.4347
27.190,82.1115
27.200,82.1975
27.210,72.5017
27.220,84.5853
27.230,71.6020
27.240,78.9238
27.250,71.8134
27.260,74.8641
27.270,74.5022
27.280,84.0286
27.290,76.7116
27.300,73.4354
27.310,86.5967
27.320,79.0380
27.330,84.6287
27.340,73.7569
27.350,84.1677
27.360,83.6763
27.370,73.3712
27.380,81.7040
27.390,75.0856
27.400,87.5540
27.410,78.8826
27.420,81.2869
27.430,87.0728
27.440,84.7890
27.450,85.4363
27.460,84.1312
27.470,87.9973
27.480,77.0959
27.490,79.7841
27.500,88.7565
27.510,87.6565
27.520,80.5573
27.530,84.4501
27.540,79.0341
27.550,79.9405
27.560,84.1727
27.570,84.6938
27.580,77.1305
27.590,81.0468
27.600,73.8827
27.610,78.2173
27.620,76.5218
27.630,77.7928
27.640,85.8040
27.650,83.0876
27.660,73.8812
27.670,76.8936
27.680,79.3610
27.690,86.4442
27.700,81.5896
27.710,78.1501
27.720,83.1843
27.730,84.9927
27.740,84.5618
27.750,73.5843
27.760,84.2688
27.770,72.6493
27.780,72.8041
27.790,82.7374
27.800,76.6545
27.810,80.3554
27.820,82.4717
27.830,80.7773
27.840,82.7600
27.850,71.1170
27.860,72.6626
27.870,82.0289
27.880,78.3628
27.890,80.3237
27.900,73.1083
27.910,78.5898
27.920,69.9469
27.930,79.6586
27.940,72.2696
27.950,76.1272
27.960,75.5476
27.970,70.2745
27.980,70.7538
27.990,72.7353
28.000,68.7020
28.010,65.8336
28.020,77.2916
28.030,71.9528
28.040,68.9706
28.050,69.6309
28.060,67.5301
28.070,66.5749
28.080,71.4578
28.090,73.2288
28.100,70.8802
28.110,77.5002
28.120,67.2362
28.130,74.1389
28.140,77.0791
28.150,72.3070
28.160,74.0903
28.170,69.7127
28.180,66.3057
28.190,65.0810
28.200,63.4802
28.210,72.7182
28.220,74.4614
28.230,72.8741
28.240,75.2581
28.250,75.8938
28.260,64.9726
28.270,70.3055
28.280,65.9119
28.290,72.2427
28.300,64.8891
28.310,67.2856
28.320,68.2612
28.330,70.8309
28.340,76.2843
28.350,64.9014
28.360,74.8714
28.370,76.9112
28.380,70.0256
28.390,78.1836
28.400,70.1684
28.410,79.0872
28.420,70.4464
28.430,75.1858
28.440,70.7086
28.450,78.7270
28.460,74.3756
28.470,71.1740
28.480,75.0659
28.490,72.2990
28.500,80.2310
28.510,68.2477
28.520,76.2868
28.530,68.9210
28.540,74.8456
28.550,73.0925
28.560,77.2867
28.570,77.6737
28.580,76.3321
28.590,74.9567
28.600,80.9193
28.610,71.3494
28.620,80.2098
28.630,75.3713
28.640,73.2838
28.650,72.1360
28.660,72.9972
28.670,73.6479
28.680,84.8531
28.690,85.8019
28.700,78.5708
28.710,72.7301
28.720,84.9507
28.730,82.7710
28.740,79.4804
28.750,83.7084
28.760,77.5494
28.770,74.0532
28.780,78.3937
28.790,73.9900
28.800,83.0441
28.810,75.6374
28.820,86.6202
28.830,86.7032
28.840,79.2665
28.850,84.7521
28.860,87.9117
28.870,82.2905
28.880,82.0576
28.890,75.0082
28.900,85.1025
28.910,88.1485
28.920,88.2834
28.930,77.1315
28.940,75.8148
28.950,84.5897
28.960,85.5242
28.970,86.2693
28.980,84.5975
28.990,79.4733
29.000,84.8741
29.010,80.2842
29.020,87.0536
29.030,86.9543
29.040,79.0679
29.050,82.1145
29.060,80.8069
29.070,85.8387
29.080,83.3524
29.090,86.1404
29.100,78.2028
29.110,79.6878
29.120,84.1253
29.130,85.4952
29.140,72.6656
29.150,81.3909
29.160,77.8776
29.170,82.7021
29.180,74.3132
29.190,73.5230
29.200,79.0414
29.210,79.7136
29.220,71.9028
29.230,75.0247
29.240,77.1139
29.250,77.9550
29.260,74.1456
29.270,74.5804
29.280,72.7778
29.290,68.8350
29.300,81.5234
29.310,70.8089
29.320,80.4497
29.330,69.8400
29.340,72.8659
29.350,79.3416
29.360,78.8552
29.370,75.7393
29.380,76.0012
29.390,75.6591
29.400,67.1250
29.410,75.3165
29.420,70.7700
29.430,72.6648
29.440,78.2201
29.450,77.6325
29.460,74.4112
29.470,75.0370
29.480,75.6869
29.490,77.0927
29.500,71.1153
29.510,74.3018
29.520,75.5831
29.530,73.1897
29.540,65.9655
29.550,75.0031
29.560,67.1254
29.570,73.2352
29.580,67.1418
29.590,64.7147
29.600,67.2100
29.610,70.9554
29.620,69.7762
29.630,68.0790
29.640,69.4462
29.650,72.4186
29.660,64.3263
29.670,74.7515
29.680,67.8233
29.690,74.5700
29.700,68.1276
29.710,67.1784
29.720,65.5503
29.730,75.5483
29.740,68.4244
29.750,71.1645
29.760,77.0146
29.770,65.6360
29.780,72.0036
29.790,71.4875
29.800,76.5180
29.810,74.9588
29.820,70.6570
29.830,74.8787
29.840,76.9006
29.850,72.4541
29.860,76.4788
29.870,79.7691
29.880,76.4179
29.890,69.5786
29.900,74.3576
29.910,66.3704
29.920,74.8408
29.930,77.3809
29.940,73.7648
29.950,72.6854
29.960,77.9395
29.970,75.0916
29.980,76.0118
29.990,74.8779
30.000,77.9980
30.010,71.2802
30.020,71.0934
30.030,78.2298
30.040,77.8541
30.050,79.4553
30.060,87.7287
30.070,76.9644
30.080,79.6309
30.090,83.2883
30.100,83.5883
30.110,94.1684
30.120,83.2452
30.130,97.0942
30.140,85.0734
30.150,88.8656
30.160,92.7677
30.170,88.7258
30.180,93.3043
30.190,94.0839
30.200,96.0678
30.210,99.3793
30.220,100.1124
30.230,95.0462
30.240,98.2323
30.250,104.3769
30.260,111.6568
30.270,101.0769
30.280,110.8182
30.290,105.1211
30.300,105.0432
30.310,104.6196
30.320,113.0112
30.330,118.3876
30.340,118.6376
30.350,121.4608
30.360,112.8892
30.370,111.0903
30.380,115.7570
30.390,124.8715
30.400,121.4529
30.410,123.5632
30.420,121.6838
30.430,127.5769
30.440,130.4799
30.450,130.2331
30.460,127.8550
30.470,131.3596
30.480,126.9842
30.490,136.2950
30.500,137.6403
30.510,135.2143
30.520,137.0523
30.530,143.2332
30.540,134.2775
30.550,143.3637
30.560,134.2643
30.570,144.8294
30.580,146.9644
30.590,137.2450
30.600,143.9612
30.610,151.8963
30.620,146.1954
30.630,146.6769
30.640,146.5526
30.650,153.5060
30.660,152.7854
30.670,151.3354
30.680,149.6726
30.690,160.7478
30.700,155.2405
30.710,159.6424
30.720,163.1480
30.730,156.3676
30.740,163.5102
30.750,167.3124
30.760,158.6668
30.770,169.5232
30.780,169.2284
30.790,166.8347
30.800,172.3740
30.810,173.1987
30.820,175.6581
30.830,175.1990
30.840,167.7786
30.850,174.9302
30.860,179.4385
30.870,181.6928
30.880,181.5471
30.890,174.3034
30.900,171.8731
30.910,178.6489
30.920,182.4895
30.930,185.4726
30.940,187.3916
30.950,189.1974
30.960,191.7008
30.970,185.4978
30.980,189.9932
30.990,194.7221
31.000,185.5223
31.010,195.1489
31.020,190.1770
31.030,185.7456
31.040,187.6157
31.050,190.1304
31.060,190.2332
31.070,188.2249
31.080,191.7279
31.090,187.5255
31.100,188.5063
31.110,195.3068
31.120,195.4019
31.130,195.8555
31.140,197.0743
31.150,185.3934
31.160,190.2300
31.170,193.5331
31.180,187.7750
31.190,188.7301
31.200,194.8474
31.210,194.1067
31.220,184.5458
31.230,184.5014
31.240,191.3216
31.250,197.1523
31.260,196.2635
31.270,188.0105
31.280,193.0404
31.290,194.8425
31.300,187.2873
31.310,190.4640
31.320,184.0088
31.330,184.8459
31.340,187.5356
31.350,194.3768
31.360,192.6694
31.370,188.4038
31.380,193.1909
31.390,190.6550
31.400,183.2323
31.410,189.5488
31.420,188.1661
31.430,190.0007
31.440,189.7327
31.450,189.1744
31.460,186.4885
31.470,190.4732
31.480,187.6406
31.490,196.7019
31.500,184.3037
31.510,186.7011
31.520,194.1787
31.530,189.5487
31.540,187.8043
31.550,187.9479
31.560,189.7082
31.570,193.9283
31.580,186.4531
31.590,184.4253
31.600,186.7982
31.610,190.2081
31.620,192.6422
31.630,183.4176
31.640,187.0145
31.650,193.1491
31.660,197.2343
31.670,186.5290
31.680,194.2391
31.690,194.6873
31.700,184.9993
31.710,196.3807
31.720,185.0240
31.730,185.2799
31.740,185.7623
31.750,196.2266
31.760,196.8996
31.770,196.5552
31.780,192.9545
31.790,184.7778
31.800,190.7320
31.810,190.6195
31.820,184.5191
31.830,195.7542
31.840,183.4246
31.850,186.4423
31.860,189.7531
31.870,187.3000
31.880,193.1119
31.890,191.6156
31.900,188.3377
31.910,192.3079
31.920,183.3856
31.930,195.2711
31.940,185.2565
31.950,193.0632
31.960,188.1966
31.970,186.6725
31.980,191.7451
31.990,187.3016
32.000,73.1363
32.010,76.7303
32.020,80.4925
32.030,73.9857
32.040,84.5775
32.050,80.7239
32.060,72.6268
32.070,75.2173
32.080,78.7404
32.090,79.2537
32.100,70.8195
32.110,76.8567
32.120,75.7526
32.130,75.2877
32.140,71.1770
32.150,72.0820
32.160,81.8118
32.170,82.0882
32.180,71.2199
32.190,68.7714
32.200,75.0116
32.210,73.3933
32.220,75.2598
32.230,74.6123
32.240,69.5942
32.250,69.1327
32.260,69.8377
32.270,75.2419
32.280,72.3348
32.290,71.1732
32.300,72.1916
32.310,72.8499
32.320,76.3993
32.330,73.7806
32.340,72.8121
32.350,78.1331
32.360,76.5546
32.370,78.2254
32.380,66.6135
32.390,76.3341
32.400,74.4327
32.410,71.6185
32.420,68.1051
32.430,73.9426
32.440,69.5036
32.450,77.6800
32.460,75.4203
32.470,63.8811
32.480,65.9205
32.490,68.6659
32.500,68.4845
32.510,76.8821
32.520,65.5393
32.530,75.5377
32.540,67.7432
32.550,73.6901
32.560,66.9863
32.570,67.6743
32.580,69.5870
32.590,68.3104
32.600,77.9195
32.610,75.5502
32.620,65.6864
32.630,75.5567
32.640,69.3776
32.650,78.1997
32.660,70.3391
32.670,67.7456
32.680,76.1021
32.690,79.0718
32.700,70.5556
32.710,74.4728
32.720,79.8000
32.730,77.2377
32.740,77.8804
32.750,72.7425
32.760,80.6742
32.770,77.9379
32.780,67.0685
32.790,70.3182
32.800,80.4055
32.810,79.2632
32.820,76.3172
32.830,68.7594
32.840,80.2196
32.850,78.3063
32.860,76.1701
32.870,82.5118
32.880,71.5692
32.890,74.7847
32.900,77.0476
32.910,73.0782
32.920,82.2623
32.930,71.2023
32.940,74.1179
32.950,82.9007
32.960,78.2271
32.970,76.6687
32.980,86.2539
32.990,80.6644
33.000,73.8609
33.010,74.3769
33.020,78.7137
33.030,83.7162
33.040,80.6447
33.050,76.6156
33.060,77.3037
33.070,77.5027
33.080,82.5635
33.090,75.1694
33.100,83.5199
33.110,83.2209
33.120,85.2712
33.130,75.2626
33.140,75.3052
33.150,77.0299
33.160,86.8662
33.170,78.3337
33.180,81.8878
33.190,83.6314
33.200,81.9616
33.210,76.1183
33.220,75.9084
33.230,86.1765
33.240,88.0922
33.250,78.2325
33.260,83.8826
33.270,76.1416
33.280,80.1512
33.290,88.7433
33.300,76.0873
33.310,77.5072
33.320,74.4502
33.330,84.9985
33.340,85.4042
33.350,83.9606
33.360,85.2908
33.370,75.8132
33.380,76.7617
33.390,79.8141
33.400,77.6426
33.410,78.8805
33.420,75.0749
33.430,84.8240
33.440,75.6352
33.450,84.4674
33.460,72.9904
33.470,78.8409
33.480,78.3091
33.490,78.2235
33.500,75.1256
33.510,85.0050
33.520,71.0481
33.530,72.9545
33.540,82.3286
33.550,82.4601
33.560,71.2354
33.570,72.7340
33.580,68.7993
33.590,76.1514
33.600,78.3919
33.610,81.6225
33.620,68.6807
33.630,69.6481
33.640,76.2429
33.650,69.6133
33.660,79.5447
33.670,75.2507
33.680,71.3266
33.690,68.6348
33.700,66.0792
33.710,77.3995
33.720,75.3245
33.730,77.6520
33.740,76.5530
33.750,75.2524
33.760,70.6884
33.770,71.0923
33.780,65.4698
33.790,70.5928
33.800,72.1973
33.810,73.3129
33.820,77.0025
33.830,68.4677
33.840,63.9574
33.850,64.5428
33.860,77.7898
33.870,65.8283
33.880,68.8375
33.890,74.3792
33.900,65.7653
33.910,68.5835
33.920,76.2946
33.930,77.3658
33.940,65.7253
33.950,63.8491
33.960,73.0768
33.970,63.6260
33.980,70.6107
33.990,71.7512
34.000,71.8410
34.010,67.3653
34.020,68.7778
34.030,70.4004
34.040,70.0693
34.050,75.1409
34.060,75.5358
34.070,71.0614
34.080,78.6317
34.090,64.8917
34.100,78.5336
34.110,74.1754
34.120,65.1188
34.130,76.4471
34.140,69.1933
34.150,78.7569
34.160,75.1904
34.170,74.2616
34.180,76.5163
34.190,67.7104
34.200,76.2335
34.210,79.0350
34.220,73.6572
34.230,78.1467
34.240,70.0645
34.250,80.5608
34.260,79.8571
34.270,73.1530
34.280,82.6328
34.290,75.2977
34.300,83.5568
34.310,71.2533
34.320,77.8921
34.330,70.4333
34.340,79.4252
34.350,77.7048
34.360,81.9399
34.370,79.5833
34.380,81.4762
34.390,84.7709
34.400,81.4246
34.410,79.5747
34.420,82.3035
34.430,83.0262
34.440,77.1453
34.450,81.8532
34.460,83.1646
34.470,77.3656
34.480,85.5054
34.490,74.7648
34.500,85.6372
34.510,76.8807
34.520,88.1923
34.530,78.5714
34.540,86.7331
34.550,75.9038
34.560,78.9563
34.570,78.0060
34.580,83.6298
34.590,75.3046
34.600,85.5943
34.610,82.7830
34.620,85.7823
34.630,85.0683
34.640,87.3100
34.650,83.5256
34.660,81.8876
34.670,79.9259
34.680,86.7448
34.690,79.8866
34.700,87.8864
34.710,83.7696
34.720,83.7918
34.730,86.5182
34.740,83.5029
34.750,81.3837
34.760,83.5987
34.770,77.6408
34.780,78.4624
34.790,85.0360
34.800,78.8685
34.810,84.3535
34.820,83.5820
34.830,75.8690
34.840,82.1775
34.850,76.4703
34.860,74.0093
34.870,83.1657
34.880,73.4359
34.890,78.2701
34.900,79.8381
34.910,78.1077
34.920,80.3075
34.930,77.7802
34.940,80.9844
34.950,73.0797
34.960,71.5692
34.970,76.9211
34.980,73.4024
34.990,79.5346
35.000,73.3346
35.010,70.6164
35.020,70.5618
35.030,79.6857
35.040,68.5698
35.050,72.5682
35.060,68.9499
35.070,79.4555
35.080,68.4836
35.090,72.3345
35.100,72.6283
35.110,70.7723
35.120,67.8519
35.130,77.6984
35.140,73.7238
35.150,75.7189
35.160,71.1459
35.170,72.3062
35.180,69.4155
35.190,70.9992
35.200,71.8403
35.210,64.4701
35.220,72.5257
35.230,67.5193
35.240,69.7445
35.250,78.1104
35.260,66.4504
35.270,69.6356
35.280,74.9108
35.290,71.4413
35.300,75.5625
35.310,73.0277
35.320,74.5580
35.330,72.0400
35.340,71.8707
35.350,67.3005
35.360,67.4651
35.370,68.9177
35.380,75.8830
35.390,66.7146
35.400,77.0731
35.410,67.1040
35.420,67.2956
35.430,65.0222
35.440,65.7414
35.450,77.4836
35.460,76.4711
35.470,67.0730
35.480,78.5279
35.490,76.0583
35.500,69.2711
35.510,64.6035
35.520,68.8875
35.530,71.6959
35.540,71.1795
35.550,67.1691
35.560,71.0239
35.570,67.2162
35.580,70.4865
35.590,80.2179
35.600,78.7624
35.610,73.3480
35.620,77.6679
35.630,76.6363
35.640,73.4625
35.650,81.0816
35.660,78.2319
35.670,80.3340
35.680,71.4235
35.690,75.7251
35.700,82.8155
35.710,74.1625
35.720,75.0918
35.730,79.7050
35.740,84.1247
35.750,78.2410
35.760,76.0717
35.770,72.1105
35.780,84.8290
35.790,78.8521
35.800,75.7227
35.810,75.8455
35.820,85.6858
35.830,86.4160
35.840,74.1471
35.850,85.6673
35.860,80.6157
35.870,81.0369
35.880,76.0691
35.890,81.4502
35.900,85.3377
35.910,75.3896
35.920,87.6859
35.930,77.7502
35.940,81.2920
35.950,74.7292
35.960,81.8013
35.970,87.6190
35.980,86.3938
35.990,82.0034
36.000,83.6148
36.010,81.2136
36.020,84.1438
36.030,81.6604
36.040,77.9876
36.050,81.9966
36.060,84.8897
36.070,85.1934
36.080,78.0039
36.090,83.1329
36.100,76.6165
36.110,77.6547
36.120,87.6463
36.130,88.9372
36.140,81.9330
36.150,77.6510
36.160,79.0660
36.170,89.0823
36.180,83.2655
36.190,84.2355
36.200,79.9533
36.210,77.1991
36.220,86.1743
36.230,84.9847
36.240,77.2231
36.250,87.1548
36.260,86.0689
36.270,74.4154
36.280,77.9682
36.290,85.6626
36.300,81.9994
36.310,78.8228
36.320,84.1002
36.330,73.4458
36.340,80.9987
36.350,73.0328
36.360,79.5391
36.370,84.4375
36.380,70.5747
36.390,73.7426
36.400,83.4187
36.410,79.2310
36.420,70.3812
36.430,78.5100
36.440,81.3772
36.450,82.1360
36.460,72.4141
36.470,77.8167
36.480,72.4764
36.490,77.0951
36.500,73.1674
36.510,74.7555
36.520,72.6272
36.530,71.2996
36.540,69.5908
36.550,67.6815
36.560,79.1278
36.570,75.8517
36.580,78.2593
36.590,69.9082
36.600,75.3268
36.610,66.8272
36.620,78.7095
36.630,75.0026
36.640,76.1979
36.650,75.0801
36.660,75.1272
36.670,71.1621
36.680,73.7997
36.690,65.8521
36.700,70.2078
36.710,73.5038
36.720,65.6336
36.730,65.8663
36.740,68.3618
36.750,74.6550
36.760,77.8478
36.770,69.1969
36.780,67.0563
36.790,63.9178
36.800,70.1713
36.810,64.1008
36.820,70.6973
36.830,77.9558
36.840,76.2549
36.850,76.7734
36.860,67.8313
36.870,74.7701
36.880,72.2299
36.890,68.6302
36.900,76.1509
36.910,73.8844
36.920,76.4170
36.930,68.8343
36.940,70.5528
36.950,75.7540
36.960,71.8833
36.970,68.5053
36.980,67.7525
36.990,67.2300
37.000,69.2863
37.010,79.9990
37.020,78.4976
37.030,72.5297
37.040,80.7740
37.050,70.3773
37.060,71.9432
37.070,69.5651
37.080,76.6178
37.090,76.0380
37.100,69.1161
37.110,78.1346
37.120,68.8885
37.130,80.9428
37.140,80.7690
37.150,81.3208
37.160,74.7739
37.170,73.0342
37.180,83.6399
37.190,81.0932
37.200,74.8696
37.210,82.4623
37.220,79.3584
37.230,85.0604
37.240,82.6178
37.250,79.4300
37.260,85.2120
37.270,76.5017
37.280,74.2546
37.290,84.4762
37.300,80.8266
37.310,80.7186
37.320,85.6036
37.330,87.7472
37.340,87.0852
37.350,86.0283
37.360,86.0122
37.370,86.4845
37.380,85.2286
37.390,85.4335
37.400,87.5774
37.410,75.3493
37.420,86.1903
37.430,75.0267
37.440,76.3811
37.450,77.8330
37.460,79.5490
37.470,81.3113
37.480,79.9276
37.490,78.9399
37.500,77.3326
37.510,89.4209
37.520,88.8371
37.530,89.1712
37.540,84.2460
37.550,89.0431
37.560,75.0804
37.570,77.6756
37.580,82.0598
37.590,78.2481
37.600,82.9914
37.610,86.7857
37.620,75.1347
37.630,85.3514
37.640,85.3941
37.650,78.7377
37.660,77.4413
37.670,79.6121
37.680,82.7085
37.690,83.7760
37.700,83.4971
37.710,87.1422
37.720,74.0786
37.730,86.1419
37.740,78.6991
37.750,75.1829
37.760,77.6399
37.770,76.5038
37.780,85.0840
37.790,79.1673
37.800,79.5485
37.810,83.8279
37.820,83.0697
37.830,73.8634
37.840,73.0548
37.850,74.2799
37.860,76.0129
37.870,82.8374
37.880,77.1157
37.890,80.6114
37.900,70.3937
37.910,73.4053
37.920,81.6324
37.930,69.9286
37.940,68.6603
37.950,77.0088
37.960,79.7029
37.970,80.8459
37.980,66.9987
37.990,75.6540
38.000,68.0791
38.010,77.9519
38.020,77.3731
38.030,70.1420
38.040,71.3094
38.050,78.8125
38.060,66.7447
38.070,76.1551
38.080,70.6481
38.090,67.9559
38.100,73.2851
38.110,72.8063
38.120,73.4464
38.130,78.4551
38.140,70.4416
38.150,64.1025
38.160,69.9153
38.170,69.8710
38.180,70.9026
38.190,71.7308
38.200,77.9856
38.210,64.2196
38.220,74.5160
38.230,72.7981
38.240,73.9260
38.250,66.0084
38.260,75.9320
38.270,73.5954
38.280,67.6629
38.290,66.1992
38.300,75.0630
38.310,64.7537
38.320,75.7797
38.330,72.4290
38.340,71.6130
38.350,74.7397
38.360,71.0244
38.370,74.2975
38.380,70.4445
38.390,66.7100
38.400,75.2985
38.410,78.0069
38.420,76.8563
38.430,71.6223
38.440,71.6484
38.450,67.6482
38.460,78.9239
38.470,69.0334
38.480,79.3382
38.490,78.7767
38.500,77.7275
38.510,81.4996
38.520,71.7722
38.530,70.2442
38.540,74.7980
38.550,70.7115
38.560,77.4521
38.570,81.2255
38.580,81.4993
38.590,80.8457
38.600,83.7989
38.610,73.4071
38.620,71.1491
38.630,84.5393
38.640,83.6420
38.650,74.6256
38.660,86.0086
38.670,76.8144
38.680,73.4808
38.690,73.1689
38.700,86.7820
38.710,74.1862
38.720,84.6181
38.730,82.9735
38.740,78.8177
38.750,86.2275
38.760,74.1304
38.770,76.4895
38.780,76.7717
38.790,80.3468
38.800,84.7536
38.810,81.9480
38.820,82.2151
38.830,78.9839
38.840,81.0449
38.850,85.2915
38.860,75.1038
38.870,82.0909
38.880,80.4339
38.890,88.0768
38.900,83.8485
38.910,88.9288
38.920,75.6151
38.930,80.2017
38.940,82.3553
38.950,87.5963
38.960,79.1345
38.970,87.7709
38.980,87.7005
38.990,81.4769
39.000,76.7825
39.010,85.7693
39.020,82.4701
39.030,77.5016
39.040,80.6205
39.050,77.4392
39.060,85.4773
39.070,88.1014
39.080,74.7531
39.090,81.1362
39.100,85.4418
39.110,82.5991
39.120,77.3995
39.130,75.5057
39.140,84.3697
39.150,76.5646
39.160,78.6154
39.170,86.7993
39.180,85.0210
39.190,78.1005
39.200,73.3253
39.210,78.7699
39.220,73.0688
39.230,75.4338
39.240,76.6126
39.250,76.5654
39.260,71.7274
39.270,72.6594
39.280,70.6400
39.290,77.3631
39.300,82.6823
39.310,70.5359
39.320,74.4075
39.330,77.6278
39.340,78.6992
39.350,76.8222
39.360,67.6577
39.370,68.1562
39.380,76.1196
39.390,70.3697
39.400,76.1471
39.410,79.7531
39.420,66.9489
39.430,67.1449
39.440,76.0819
39.450,78.6043
39.460,70.4605
39.470,72.6221
39.480,69.1879
39.490,67.7682
39.500,70.7188
39.510,65.3983
39.520,74.6342
39.530,72.9810
39.540,65.9766
39.550,69.5483
39.560,67.2078
39.570,68.6618
39.580,76.6490
39.590,64.1389
39.600,71.9781
39.610,67.7237
39.620,63.7876
39.630,64.3257
39.640,73.3398
39.650,72.6178
39.660,63.7341
39.670,71.4612
39.680,68.8814
39.690,67.8911
39.700,72.6106
39.710,76.1235
39.720,69.9499
39.730,67.3242
39.740,74.1513
39.750,73.3570
39.760,70.4714
39.770,73.6424
39.780,74.2699
39.790,69.1210
39.800,70.8301
39.810,77.8519
39.820,70.2810
39.830,77.4514
39.840,76.6383
39.850,77.1262
39.860,75.1501
39.870,70.4499
39.880,75.8966
39.890,78.0583
39.900,69.9321
39.910,69.9728
39.920,75.4590
39.930,80.0695
39.940,76.2074
39.950,76.4675
39.960,78.4513
39.970,73.2765
39.980,69.5676
39.990,71.9591
40.000,73.3068
40.010,72.4936
40.020,84.2189
40.030,78.1224
40.040,81.4541
40.050,83.2797
40.060,84.6382
40.070,76.8422
40.080,85.2039
40.090,76.6292
40.100,80.0402
40.110,74.0075
40.120,84.0156
40.130,76.6319
40.140,78.1488
40.150,76.4064
40.160,78.6854
40.170,82.8571
40.180,75.8163
40.190,83.7818
40.200,79.2625
40.210,83.2435
40.220,81.8385
40.230,86.3357
40.240,88.9060
40.250,82.1662
40.260,81.9174
40.270,87.6480
40.280,77.1828
40.290,86.7740
40.300,88.0847
40.310,82.7408
40.320,82.8274
40.330,89.9771
40.340,82.9698
40.350,78.9892
40.360,85.5707
40.370,82.5870
40.380,78.0141
40.390,84.8163
40.400,78.7118
40.410,86.9098
40.420,85.8357
40.430,86.3647
40.440,82.5021
40.450,87.1552
40.460,78.1355
40.470,78.6406
40.480,76.0352
40.490,85.1765
40.500,76.9719
40.510,76.8593
40.520,86.2679
40.530,87.2808
40.540,87.4733
40.550,82.3487
40.560,75.6591
40.570,74.3556
40.580,76.4016
40.590,75.9069
40.600,75.1936
40.610,82.0336
40.620,79.7366
40.630,77.2833
40.640,82.8216
40.650,81.2727
40.660,84.4428
40.670,79.4714
40.680,73.7692
40.690,82.7140
40.700,82.9104
40.710,80.4533
40.720,70.3091
40.730,77.1895
40.740,79.7016
40.750,71.7105
40.760,80.3775
40.770,82.1758
40.780,70.9666
40.790,71.0709
40.800,76.3649
40.810,79.5969
40.820,72.4953
40.830,69.4258
40.840,74.3722
40.850,79.8174
40.860,66.9992
40.870,76.3384
40.880,72.2501
40.890,79.1378
40.900,75.1510
40.910,69.3729
40.920,71.1732
40.930,65.0518
40.940,67.7676
40.950,77.8748
40.960,74.2025
40.970,69.9697
40.980,70.1928
40.990,76.1044
41.000,70.1998
41.010,70.7072
41.020,77.3271
41.030,73.3500
41.040,73.6888
41.050,78.1089
41.060,65.3327
41.070,73.3925
41.080,73.8975
41.090,77.7262
41.100,71.5096
41.110,70.7065
41.120,75.1547
41.130,66.0607
41.140,75.8328
41.150,72.0547
41.160,76.3547
41.170,76.1091
41.180,72.3254
41.190,70.7226
41.200,73.3676
41.210,69.6308
41.220,73.7774
41.230,69.1250
41.240,69.4035
41.250,70.0554
41.260,78.4472
41.270,73.6186
41.280,78.2470
41.290,79.4814
41.300,73.9207
41.310,81.1392
41.320,72.7338
41.330,72.1575
41.340,79.8961
41.350,70.7943
41.360,80.4791
41.370,69.1160
41.380,68.6513
41.390,77.4858
41.400,70.1920
41.410,69.3613
41.420,71.1735
41.430,79.3305
41.440,72.9491
41.450,76.3346
41.460,70.8442
41.470,84.7357
41.480,82.0233
41.490,75.5481
41.500,83.2167
41.510,75.2489
41.520,75.7729
41.530,73.2929
41.540,86.5308
41.550,85.3440
41.560,73.5828
41.570,83.0910
41.580,77.5111
41.590,81.1691
41.600,82.5834
41.610,78.1040
41.620,85.4868
41.630,81.9567
41.640,87.9362
41.650,83.4149
41.660,86.5521
41.670,82.3183
41.680,80.4043
41.690,79.4017
41.700,88.1057
41.710,86.1484
41.720,83.3542
41.730,82.1790
41.740,79.8546
41.750,81.0648
41.760,82.1760
41.770,84.9424
41.780,87.3802
41.790,86.8902
41.800,78.3810
41.810,83.8855
41.820,88.4579
41.830,77.0212
41.840,88.8660
41.850,79.7506
41.860,77.2541
41.870,80.5173
41.880,83.1034
41.890,85.2266
41.900,86.3709
41.910,80.0831
41.920,87.2650
41.930,85.5800
41.940,83.5921
41.950,82.9034
41.960,79.1021
41.970,78.6309
41.980,84.4534
41.990,77.7384
42.000,80.5626
42.010,84.5405
42.020,85.9030
42.030,80.4205
42.040,79.3391
42.050,82.7023
42.060,84.9349
42.070,74.1451
42.080,77.8727
42.090,79.4345
42.100,80.0954
42.110,76.4806
42.120,71.1500
42.130,80.3627
42.140,73.4713
42.150,73.9216
42.160,73.5605
42.170,73.6619
42.180,82.4599
42.190,70.4787
42.200,79.3031
42.210,75.2798
42.220,78.9147
42.230,79.6962
42.240,71.6373
42.250,74.0962
42.260,68.9091
42.270,80.8497
42.280,68.7463
42.290,68.6037
42.300,71.2019
42.310,70.8296
42.320,72.8489
42.330,68.1503
42.340,77.3431
42.350,76.1507
42.360,66.8014
42.370,72.9381
42.380,76.2946
42.390,68.2351
42.400,77.5871
42.410,73.3487
42.420,78.1697
42.430,65.9766
42.440,72.0543
42.450,65.0186
42.460,73.3549
42.470,74.4906
42.480,67.1544
42.490,64.1625
42.500,64.5159
42.510,68.0221
42.520,67.5577
42.530,70.8941
42.540,73.0409
42.550,71.7018
42.560,65.2296
42.570,70.8273
42.580,70.5470
42.590,78.5989
42.600,78.6570
42.610,65.8453
42.620,67.1860
42.630,77.2455
42.640,68.2085
42.650,65.9665
42.660,74.1268
42.670,78.4662
42.680,75.6699
42.690,80.4074
42.700,71.1425
42.710,74.9990
42.720,69.3316
42.730,77.6325
42.740,76.3998
42.750,80.6609
42.760,68.8975
42.770,77.6699
42.780,74.7069
42.790,82.6419
42.800,79.3648
42.810,71.5569
42.820,76.3287
42.830,76.6214
42.840,83.2003
42.850,70.1341
42.860,70.7071
42.870,82.0348
42.880,74.9250
42.890,77.3590
42.900,80.4663
42.910,72.5131
42.920,73.9609
42.930,75.5986
42.940,75.2808
42.950,77.6812
42.960,73.6887
42.970,81.6178
42.980,77.9982
42.990,84.2600
43.000,80.9362
43.010,83.5837
43.020,82.1768
43.030,76.7386
43.040,75.0594
43.050,78.9603
43.060,76.7332
43.070,84.9089
43.080,79.7638
43.090,81.1747
43.100,87.0105
43.110,85.2002
43.120,75.7386
43.130,88.5385
43.140,80.4919
43.150,89.3503
43.160,77.4877
43.170,81.9139
43.180,85.5165
43.190,76.9560
43.200,78.4266
43.210,85.8616
43.220,85.4285
43.230,81.6447
43.240,86.9828
43.250,84.9108
43.260,80.8946
43.270,84.7538
43.280,79.6014
43.290,88.4478
43.300,84.7727
43.310,78.2168
43.320,77.3647
43.330,76.6420
43.340,82.9906
43.350,88.4000
43.360,80.2102
43.370,85.1331
43.380,78.2014
43.390,77.4044
43.400,77.9701
43.410,82.9815
43.420,81.2513
43.430,74.5353
43.440,87.6066
43.450,87.2547
43.460,84.0683
43.470,72.4499
43.480,83.8318
43.490,82.0935
43.500,83.2393
43.510,73.3233
43.520,75.4241
43.530,76.6270
43.540,73.4520
43.550,83.3671
43.560,71.4180
43.570,73.4416
43.580,77.6743
43.590,83.8331
43.600,71.4611
43.610,77.6377
43.620,82.7659
43.630,81.1281
43.640,82.4054
43.650,80.6519
43.660,76.4482
43.670,78.6977
43.680,69.6897
43.690,79.8240
43.700,73.2794
43.710,76.7245
43.720,77.1628
43.730,68.0577
43.740,69.6210
43.750,69.3921
43.760,73.6217
43.770,79.1689
43.780,69.0304
43.790,72.9925
43.800,71.5945
43.810,75.3858
43.820,67.0372
43.830,74.7547
43.840,75.8081
43.850,77.5682
43.860,72.5196
43.870,77.3931
43.880,69.4032
43.890,76.1435
43.900,65.5817
43.910,64.1496
43.920,69.5758
43.930,74.1756
43.940,74.3950
43.950,73.9538
43.960,74.2153
43.970,69.1633
43.980,72.6196
43.990,73.7418
44.000,70.2042
44.010,74.8000
44.020,75.2372
44.030,68.0562
44.040,77.1080
44.050,77.3259
44.060,68.8372
44.070,69.1575
44.080,77.4797
44.090,79.4244
44.100,72.0161
44.110,79.0700
44.120,74.8804
44.130,74.4469
44.140,71.7976
44.150,71.4056
44.160,71.8460
44.170,81.5086
44.180,68.7206
44.190,67.6954
44.200,81.0298
44.210,68.4366
44.220,71.9960
44.230,78.9573
44.240,68.9495
44.250,79.8936
44.260,83.7861
44.270,71.5290
44.280,80.7743
44.290,75.3349
44.300,75.4684
44.310,83.1673
44.320,77.1427
44.330,84.9020
44.340,84.4986
44.350,84.8630
44.360,72.4179
44.370,74.7661
44.380,81.9003
44.390,74.7952
44.400,77.4220
44.410,79.9397
44.420,82.8132
44.430,74.9999
44.440,82.9002
44.450,80.2477
44.460,85.7246
44.470,74.2922
44.480,84.6355
44.490,81.3376
44.500,87.2012
44.510,76.0457
44.520,85.9207
44.530,86.5283
44.540,82.6602
44.550,81.0793
44.560,87.1023
44.570,81.8877
44.580,80.9392
44.590,90.1894
44.600,85.2706
44.610,86.5448
44.620,80.0602
44.630,80.8107
44.640,77.3067
44.650,79.5083
44.660,84.7607
44.670,84.6433
44.680,76.5386
44.690,83.8444
44.700,78.2696
44.710,78.4608
44.720,88.2980
44.730,85.2905
44.740,78.8570
44.750,75.6130
44.760,86.8467
44.770,85.7762
44.780,83.6255
44.790,88.8196
44.800,77.3261
44.810,76.3305
44.820,82.6212
44.830,74.1574
44.840,73.9408
44.850,74.9836
44.860,83.2003
44.870,81.1881
44.880,78.5670
44.890,80.1258
44.900,79.4920
44.910,74.7154
44.920,84.1239
44.930,75.5745
44.940,85.6372
44.950,82.2152
44.960,78.4856
44.970,83.0313
44.980,79.5681
44.990,82.1702
45.000,83.7427
45.010,77.6313
45.020,75.0903
45.030,77.5427
45.040,85.0505
45.050,85.9225
45.060,87.2674
45.070,79.3195
45.080,83.9236
45.090,86.0790
45.100,93.2741
45.110,88.3589
45.120,92.3936
45.130,95.0474
45.140,98.4011
45.150,100.6712
45.160,91.1681
45.170,95.4399
45.180,98.3291
45.190,104.8972
45.200,102.4957
45.210,108.6920
45.220,108.7607
45.230,104.3049
45.240,99.7503
45.250,108.0471
45.260,102.2866
45.270,106.0973
45.280,104.3760
45.290,105.8041
45.300,117.3240
45.310,114.9158
45.320,110.3885
45.330,115.5464
45.340,119.0183
45.350,122.6518
45.360,113.7759
45.370,120.4224
45.380,117.4233
45.390,116.3963
45.400,120.9024
45.410,120.7876
45.420,122.1329
45.430,130.4442
45.440,121.2550
45.450,125.1050
45.460,124.3707
45.470,128.1595
45.480,135.2214
45.490,141.0004
45.500,142.5150
45.510,140.7811
45.520,131.3343
45.530,131.7186
45.540,138.6247
45.550,134.7576
45.560,147.2782
45.570,144.4661
45.580,140.4935
45.590,143.6744
45.600,141.4303
45.610,141.0406
45.620,155.3395
45.630,157.1061
45.640,151.5977
45.650,152.8531
45.660,152.7632
45.670,161.5863
45.680,158.5417
45.690,159.3371
45.700,159.2435
45.710,164.6133
45.720,167.9685
45.730,161.1887
45.740,169.2308
45.750,171.3357
45.760,167.1734
45.770,173.7331
45.780,168.0249
45.790,172.4635
45.800,177.2730
45.810,170.7750
45.820,179.0204
45.830,171.8691
45.840,173.6844
45.850,175.3357
45.860,176.9094
45.870,176.5587
45.880,179.6894
45.890,178.5044
45.900,179.6417
45.910,176.7453
45.920,190.9387
45.930,191.0834
45.940,185.6177
45.950,180.5641
45.960,190.9016
45.970,196.2217
45.980,188.7633
45.990,190.3367
46.000,198.1631
46.010,191.1235
46.020,192.4576
46.030,196.1014
46.040,197.3010
46.050,193.4464
46.060,187.2631
46.070,187.9071
46.080,189.5690
46.090,194.3060
46.100,199.1036
46.110,200.5110
46.120,197.9148
46.130,191.4408
46.140,199.1922
46.150,190.2407
46.160,193.5415
46.170,199.0277
46.180,193.9096
46.190,187.7137
46.200,196.1162
46.210,187.9767
46.220,197.3151
46.230,191.1115
46.240,189.3877
46.250,196.7512
46.260,199.2496
46.270,190.7546
46.280,196.2877
46.290,193.6752
46.300,187.0056
46.310,199.9979
46.320,194.1291
46.330,190.0539
46.340,194.7162
46.350,195.9595
46.360,193.0530
46.370,197.3781
46.380,188.1203
46.390,191.5023
46.400,196.5012
46.410,187.1648
46.420,198.8731
46.430,199.1653
46.440,189.4034
46.450,191.0441
46.460,198.7750
46.470,186.4395
46.480,186.7428
46.490,195.3995
46.500,189.8339
46.510,194.4793
46.520,192.4841
46.530,192.5103
46.540,195.7761
46.550,188.8162
46.560,189.7789
46.570,193.2116
46.580,192.2749
46.590,193.3559
46.600,197.1443
46.610,195.1064
46.620,192.0019
46.630,197.3845
46.640,196.1988
46.650,196.5613
46.660,192.0350
46.670,197.8861
46.680,188.0465
46.690,197.7475
46.700,199.6682
46.710,196.3580
46.720,196.3967
46.730,190.9436
46.740,199.3499
46.750,199.3454
46.760,186.9340
46.770,189.5815
46.780,187.6303
46.790,199.5072
46.800,192.5632
46.810,198.1897
46.820,197.7705
46.830,195.7443
46.840,192.3708
46.850,187.7005
46.860,197.2897
46.870,187.0232
46.880,186.9825
46.890,188.5547
46.900,194.1561
46.910,193.9027
46.920,191.7124
46.930,198.2056
46.940,195.8058
46.950,199.5702
46.960,186.5437
46.970,200.9330
46.980,196.1520
46.990,200.1800
47.000,67.9650
47.010,81.5067
47.020,74.2731
47.030,74.8547
47.040,72.4620
47.050,75.6806
47.060,77.2571
47.070,79.9952
47.080,80.1233
47.090,81.3606
47.100,80.0732
47.110,69.3861
47.120,79.5013
47.130,79.6282
47.140,79.1692
47.150,80.2308
47.160,82.4252
47.170,81.1964
47.180,79.8222
47.190,77.9603
47.200,84.7907
47.210,74.7671
47.220,83.5360
47.230,75.0248
47.240,74.8363
47.250,86.9709
47.260,80.9573
47.270,73.5110
47.280,85.7993
47.290,78.4132
47.300,78.9927
47.310,76.8337
47.320,80.8259
47.330,81.6169
47.340,86.4931
47.350,79.8701
47.360,83.2786
47.370,76.1890
47.380,89.4401
47.390,78.1577
47.400,86.7096
47.410,87.4571
47.420,90.2276
47.430,76.2587
47.440,79.0480
47.450,88.7849
47.460,88.1425
47.470,77.8962
47.480,88.7343
47.490,79.5417
47.500,88.4248
47.510,82.4269
47.520,82.5684
47.530,89.0952
47.540,90.5713
47.550,82.6454
47.560,82.1251
47.570,89.4478
47.580,83.1708
47.590,79.4269
47.600,87.1763
47.610,89.7484
47.620,84.9137
47.630,84.7123
47.640,80.0197
47.650,88.1288
47.660,75.7443
47.670,79.3349
47.680,85.4833
47.690,77.4425
47.700,85.3507
47.710,80.7136
47.720,87.4758
47.730,85.7556
47.740,74.9991
47.750,80.7028
47.760,79.1736
47.770,77.0073
47.780,74.0228
47.790,82.0816
47.800,80.6401
47.810,80.3806
47.820,83.1147
47.830,74.1646
47.840,80.8874
47.850,82.8722
47.860,73.0201
47.870,71.8046
47.880,79.4053
47.890,69.8911
47.900,79.8262
47.910,73.4648
47.920,75.9381
47.930,72.6441
47.940,77.1503
47.950,71.7714
47.960,79.7785
47.970,69.1015
47.980,76.6811
47.990,67.1191
48.000,76.7129
48.010,80.5805
48.020,80.9841
48.030,66.6736
48.040,77.6623
48.050,66.3212
48.060,73.1014
48.070,75.6478
48.080,71.6284
48.090,72.8042
48.100,66.6603
48.110,73.9048
48.120,67.7133
48.130,73.1254
48.140,65.3507
48.150,77.5861
48.160,79.2054
48.170,75.8935
48.180,76.9390
48.190,78.2428
48.200,67.0609
48.210,75.7554
48.220,75.7699
48.230,67.2833
48.240,72.4450
48.250,70.5827
48.260,78.3444
48.270,77.4956
48.280,77.0014
48.290,69.1345
48.300,76.2177
48.310,68.4263
48.320,66.1960
48.330,76.0366
48.340,73.1614
48.350,69.5970
48.360,78.7931
48.370,78.0746
48.380,70.9551
48.390,67.9962
48.400,72.9986
48.410,76.6264
48.420,72.1306
48.430,77.2591
48.440,75.4139
48.450,78.3344
48.460,75.0664
48.470,68.5162
48.480,70.5105
48.490,76.6572
48.500,72.3074
48.510,78.7533
48.520,82.8049
48.530,78.8140
48.540,73.8316
48.550,83.7089
48.560,78.7120
48.570,84.2269
48.580,83.4166
48.590,82.6567
48.600,82.1658
48.610,74.2180
48.620,82.7415
48.630,81.9151
48.640,75.9930
48.650,81.6264
48.660,78.3693
48.670,73.2226
48.680,80.4188
48.690,85.6866
48.700,83.6592
48.710,74.3952
48.720,82.5561
48.730,83.7869
48.740,87.0331
48.750,86.4500
48.760,87.5517
48.770,84.7608
48.780,78.5357
48.790,83.3849
48.800,83.4468
48.810,89.9136
48.820,86.2650
48.830,82.0364
48.840,80.6350
48.850,77.6168
48.860,80.2354
48.870,84.1886
48.880,79.5522
48.890,85.2704
48.900,78.6401
48.910,88.1101
48.920,77.9505
48.930,82.9071
48.940,88.4923
48.950,89.1594
48.960,88.5162
48.970,85.7551
48.980,89.5253
48.990,88.6383
49.000,76.4772
49.010,76.0292
49.020,77.5937
49.030,86.3323
49.040,79.3145
49.050,75.4946
49.060,81.3763
49.070,75.2966
49.080,84.6181
49.090,87.0336
49.100,82.8596
49.110,82.6379
49.120,82.8875
49.130,86.1380
49.140,78.6934
49.150,76.8733
49.160,86.0450
49.170,87.8129
49.180,78.5156
49.190,84.7513
49.200,76.6308
49.210,74.4757
49.220,73.8776
49.230,85.5143
49.240,83.9264
49.250,82.1502
49.260,71.3501
49.270,80.2341
49.280,79.0450
49.290,71.7337
49.300,81.8297
49.310,70.1641
49.320,77.2163
49.330,80.4950
49.340,76.4820
49.350,69.2787
49.360,75.2697
49.370,78.1892
49.380,81.0281
49.390,79.9327
49.400,68.8949
49.410,71.0314
49.420,68.8302
49.430,80.7555
49.440,78.6763
49.450,68.8781
49.460,80.0802
49.470,70.7878
49.480,78.4470
49.490,70.4348
49.500,65.7587
49.510,75.0992
49.520,79.0887
49.530,74.9529
49.540,76.0938
49.550,71.8837
49.560,72.4929
49.570,66.8518
49.580,68.6992
49.590,71.9563
49.600,74.8121
49.610,72.7031
49.620,75.6562
49.630,72.0730
49.640,72.9247
49.650,68.0528
49.660,67.8419
49.670,77.2466
49.680,79.1015
49.690,72.0952
49.700,70.2227
49.710,70.2031
49.720,70.5296
49.730,76.6013
49.740,79.7365
49.750,77.6457
49.760,72.5494
49.770,66.1221
49.780,76.6036
49.790,69.8583
49.800,76.9605
49.810,76.9700
49.820,67.8394
49.830,70.7846
49.840,74.6201
49.850,71.2759
49.860,74.0714
49.870,75.8701
49.880,77.7997
49.890,78.0180
49.900,82.4433
49.910,75.9796
49.920,81.2979
49.930,78.2114
49.940,78.2969
49.950,76.2833
49.960,69.8502
49.970,74.6860
49.980,73.7166
49.990,70.6392
50.000,71.9359
50.010,79.0504
50.020,75.9433
50.030,80.8130
50.040,81.3717
50.050,79.8330
50.060,80.2173
50.070,81.3076
50.080,80.3211
50.090,72.7684
50.100,83.8841
50.110,73.9473
50.120,80.2450
50.130,74.0311
50.140,84.4658
50.150,79.5975
50.160,87.8594
50.170,80.5823
50.180,75.6458
50.190,81.5737
50.200,86.2392
50.210,85.7940
50.220,77.0324
50.230,82.3041
50.240,83.7086
50.250,87.6477
50.260,77.1804
50.270,79.6854
50.280,88.0054
50.290,89.0321
50.300,83.7661
50.310,76.8798
50.320,86.0002
50.330,78.0367
50.340,80.9582
50.350,79.7681
50.360,90.1585
50.370,83.2993
50.380,81.7538
50.390,77.6960
50.400,87.9195
50.410,84.7358
50.420,76.8838
50.430,83.0941
50.440,88.6679
50.450,82.8281
50.460,82.3112
50.470,76.3302
50.480,79.2893
50.490,84.5257
50.500,87.9964
50.510,84.2897
50.520,77.5739
50.530,77.6297
50.540,77.6803
50.550,76.8111
50.560,83.3685
50.570,75.7087
50.580,75.2604
50.590,86.1115
50.600,77.8498
50.610,75.4075
50.620,79.3803
50.630,86.6171
50.640,80.6248
50.650,81.9706
50.660,84.2204
50.670,82.0286
50.680,84.1813
50.690,83.1707
50.700,78.9744
50.710,75.5853
50.720,84.8809
50.730,71.5076
50.740,82.8029
50.750,81.3927
50.760,72.7111
50.770,73.3323
50.780,80.6440
50.790,80.1782
50.800,78.3687
50.810,68.9779
50.820,80.2166
50.830,76.2278
50.840,77.9556
50.850,75.6340
50.860,69.6234
50.870,70.2811
50.880,68.0753
50.890,79.8238
50.900,67.9583
50.910,73.2902
50.920,80.2733
50.930,72.7607
50.940,71.7234
50.950,70.5309
50.960,76.6848
50.970,79.1753
50.980,78.2557
50.990,76.7799
51.000,67.4964
51.010,79.1677
51.020,66.9417
51.030,69.4127
51.040,67.6787
51.050,76.6129
51.060,78.3985
51.070,67.4037
51.080,67.1182
51.090,74.3086
51.100,70.6676
51.110,66.4796
51.120,77.5498
51.130,77.0879
51.140,70.3445
51.150,77.0366
51.160,71.3522
51.170,66.2649
51.180,77.4746
51.190,72.5993
51.200,74.5575
51.210,73.8535
51.220,74.0213
51.230,80.5853
51.240,74.1383
51.250,68.1517
51.260,71.4423
51.270,74.9185
51.280,72.0204
51.290,69.1794
51.300,69.3843
51.310,74.8391
51.320,78.1560
51.330,81.1375
51.340,77.8122
51.350,71.4426
51.360,73.5306
51.370,73.3575
51.380,71.9926
51.390,77.0036
51.400,79.4704
51.410,81.0561
51.420,74.1294
51.430,77.6680
51.440,84.2809
51.450,82.2826
51.460,81.4134
51.470,72.4358
51.480,82.0294
51.490,82.6138
51.500,83.8398
51.510,82.5634
51.520,79.1821
51.530,75.5528
51.540,81.8175
51.550,80.8043
51.560,74.9162
51.570,76.4308
51.580,78.2133
51.590,84.6615
51.600,76.7039
51.610,75.5739
51.620,77.1926
51.630,89.7445
51.640,75.9177
51.650,88.6141
51.660,79.3385
51.670,86.4041
51.680,81.0474
51.690,81.2378
51.700,82.9357
51.710,80.3852
51.720,79.6197
51.730,88.3723
51.740,86.9984
51.750,76.5678
51.760,83.0203
51.770,78.0678
51.780,88.8282
51.790,86.8512
51.800,80.2460
51.810,82.5329
51.820,91.0659
51.830,78.2558
51.840,87.7903
51.850,77.1076
51.860,77.9640
51.870,90.7471
51.880,78.4297
51.890,78.0594
51.900,83.2476
51.910,75.7738
51.920,77.4764
51.930,84.3727
51.940,86.5261
51.950,82.4397
51.960,89.1433
51.970,79.6130
51.980,88.5529
51.990,78.8338
52.000,88.2204
52.010,83.7537
52.020,81.1026
52.030,79.6850
52.040,86.9041
52.050,86.1158
52.060,77.6016
52.070,73.9812
52.080,79.2003
52.090,83.0185
52.100,85.9333
52.110,78.4740
52.120,72.5166
52.130,78.6597
52.140,77.2074
52.150,74.7385
52.160,72.6994
52.170,74.6872
52.180,69.8966
52.190,78.0251
52.200,76.4714
52.210,75.0242
52.220,74.5075
52.230,81.2932
52.240,69.7984
52.250,69.1555
52.260,68.1153
52.270,77.8254
52.280,73.4707
52.290,80.2064
52.300,72.8695
52.310,78.6801
52.320,72.4479
52.330,71.5647
52.340,71.3949
52.350,78.3180
52.360,65.9770
52.370,66.8079
52.380,70.0314
52.390,73.3802
52.400,69.0063
52.410,69.8644
52.420,69.5706
52.430,75.3379
52.440,72.0309
52.450,67.1685
52.460,72.3702
52.470,78.7376
52.480,74.0778
52.490,69.5887
52.500,69.5040
52.510,71.2582
52.520,68.8770
52.530,77.9791
52.540,68.1072
52.550,72.8511
52.560,75.2996
52.570,71.1997
52.580,68.2699
52.590,78.2618
52.600,73.5131
52.610,66.8340
52.620,74.5494
52.630,78.2047
52.640,76.7703
52.650,74.8302
52.660,75.0576
52.670,79.7687
52.680,71.7478
52.690,74.3446
52.700,74.9247
52.710,77.0067
52.720,79.4826
52.730,79.4849
52.740,79.3367
52.750,70.8798
52.760,77.3198
52.770,70.8361
52.780,82.7302
52.790,70.2541
52.800,76.8017
52.810,70.4212
52.820,82.0375
52.830,81.4094
52.840,74.0788
52.850,80.1985
52.860,76.6988
52.870,85.0090
52.880,72.3975
52.890,74.1132
52.900,83.0253
52.910,85.7645
52.920,75.2911
52.930,79.5350
52.940,84.9811
52.950,76.2493
52.960,83.7538
52.970,78.5834
52.980,84.5388
52.990,86.2093
53.000,87.0727
53.010,78.2325
53.020,79.6383
53.030,86.8456
53.040,78.9182
53.050,79.8019
53.060,80.6026
53.070,89.1085
53.080,80.8217
53.090,88.0321
53.100,84.9516
53.110,87.1293
53.120,76.5586
53.130,80.3489
53.140,85.7980
53.150,81.0516
53.160,84.2799
53.170,77.4186
53.180,79.8905
53.190,87.8224
53.200,86.2171
53.210,83.6681
53.220,90.9639
53.230,90.7981
53.240,78.8169
53.250,82.5453
53.260,87.1739
53.270,76.9156
53.280,88.2344
53.290,89.6457
53.300,87.9563
53.310,84.7918
53.320,82.3681
53.330,76.3360
53.340,89.9614
53.350,88.4826
53.360,80.0110
53.370,83.2566
53.380,89.0761
53.390,78.8945
53.400,78.4700
53.410,79.7447
53.420,81.2776
53.430,78.7455
53.440,75.8461
53.450,87.8276
53.460,83.1936
53.470,81.0204
53.480,85.7913
53.490,79.3817
53.500,79.6892
53.510,81.2899
53.520,79.6540
53.530,84.6963
53.540,74.7472
53.550,77.1078
53.560,76.0604
53.570,80.9064
53.580,81.1850
53.590,82.8066
53.600,77.9794
53.610,70.7889
53.620,81.1248
53.630,75.7351
53.640,82.5365
53.650,79.1936
53.660,72.3174
53.670,82.6413
53.680,70.0779
53.690,68.0754
53.700,70.7500
53.710,70.0857
53.720,71.7105
53.730,77.0936
53.740,74.0096
53.750,74.6790
53.760,72.3587
53.770,70.5863
53.780,67.0405
53.790,79.0205
53.800,75.0430
53.810,66.0237
53.820,78.0547
53.830,73.1840
53.840,70.9751
53.850,76.4237
53.860,72.6316
53.870,73.9537
53.880,67.3506
53.890,68.6066
53.900,70.4011
53.910,68.5499
53.920,77.7394
53.930,77.8037
53.940,67.7689
53.950,76.8987
53.960,70.4160
53.970,78.3411
53.980,72.1073
53.990,70.4469
54.000,67.7113
54.010,68.3986
54.020,68.0320
54.030,76.0464
54.040,77.7825
54.050,68.3154
54.060,71.3823
54.070,70.1369
54.080,78.4909
54.090,69.1619
54.100,70.1819
54.110,77.5221
54.120,67.1203
54.130,70.9253
54.140,69.0436
54.150,81.6685
54.160,75.4092
54.170,70.1250
54.180,80.0952
54.190,72.2097
54.200,75.2854
54.210,71.2848
54.220,82.6348
54.230,79.5485
54.240,78.4092
54.250,71.9247
54.260,74.5848
54.270,81.3440
54.280,71.4051
54.290,79.1567
54.300,83.4068
54.310,85.3954
54.320,76.5284
54.330,78.8653
54.340,80.4391
54.350,85.7695
54.360,77.8733
54.370,83.4468
54.380,78.5115
54.390,74.3813
54.400,73.8594
54.410,79.7654
54.420,88.1926
54.430,76.8381
54.440,79.9573
54.450,75.6189
54.460,89.4214
54.470,78.4258
54.480,87.3081
54.490,87.7269
54.500,81.1098
54.510,83.3040
54.520,77.7235
54.530,88.7288
54.540,88.7552
54.550,78.0723
54.560,90.3087
54.570,84.2683
54.580,85.4886
54.590,90.0420
54.600,87.2423
54.610,91.0141
54.620,89.7573
54.630,86.5228
54.640,78.1354
54.650,87.6426
54.660,82.4916
54.670,83.6304
54.680,86.4640
54.690,81.9308
54.700,79.1341
54.710,87.7954
54.720,90.3392
54.730,86.6700
54.740,89.4929
54.750,77.7691
54.760,81.0936
54.770,80.9015
54.780,78.7286
54.790,75.7408
54.800,87.9636
54.810,83.7242
54.820,87.4498
54.830,79.7614
54.840,81.1892
54.850,76.1661
54.860,84.3393
54.870,75.1627
54.880,84.6281
54.890,81.2379
54.900,82.9828
54.910,73.3403
54.920,78.9948
54.930,86.0473
54.940,86.4577
54.950,82.8475
54.960,79.1075
54.970,85.8977
54.980,73.5622
54.990,74.0974
55.000,74.9007
55.010,77.2453
55.020,80.2739
55.030,71.5255
55.040,71.6496
55.050,79.9896
55.060,82.8719
55.070,77.6800
55.080,80.0394
55.090,69.4439
55.100,79.0664
55.110,76.3031
55.120,76.1979
55.130,79.1542
55.140,78.5448
55.150,75.2463
55.160,69.3127
55.170,81.4649
55.180,72.9183
55.190,67.1363
55.200,77.1632
55.210,74.1341
55.220,68.6392
55.230,74.7716
55.240,74.6487
55.250,69.0279
55.260,71.5203
55.270,66.1886
55.280,78.0891
55.290,76.8322
55.300,70.5039
55.310,74.9598
55.320,79.8251
55.330,79.3091
55.340,70.1253
55.350,65.7820
55.360,73.1542
55.370,73.2941
55.380,75.6153
55.390,69.3302
55.400,73.9243
55.410,76.9493
55.420,77.5984
55.430,76.9451
55.440,72.2990
55.450,73.5277
55.460,66.2652
55.470,77.4565
55.480,78.5114
55.490,71.5061
55.500,73.8633
55.510,73.6041
55.520,66.7316
55.530,76.9656
55.540,81.2523
55.550,71.8991
55.560,72.5336
55.570,68.6354
55.580,80.7166
55.590,77.8448
55.600,76.4525
55.610,82.3248
55.620,76.2815
55.630,78.3234
55.640,78.3273
55.650,71.2820
55.660,73.4151
55.670,81.8988
55.680,80.2437
55.690,76.9406
55.700,73.4697
55.710,79.4560
55.720,82.7198
55.730,73.2473
55.740,78.9104
55.750,77.5868
55.760,84.1285
55.770,85.0654
55.780,87.1394
55.790,81.4652
55.800,73.5322
55.810,75.0522
55.820,83.2737
55.830,74.4367
55.840,80.7584
55.850,83.9259
55.860,78.5984
55.870,76.5866
55.880,75.2830
55.890,81.4594
55.900,79.8551
55.910,79.3024
55.920,86.1285
55.930,80.8761
55.940,78.2180
55.950,79.4493
55.960,80.6226
55.970,88.4384
55.980,86.8609
55.990,87.3342
56.000,80.3987
56.010,77.8564
56.020,84.8075
56.030,82.2351
56.040,86.3422
56.050,87.1260
56.060,83.2433
56.070,81.6723
56.080,76.9268
56.090,85.8045
56.100,78.2790
56.110,79.3456
56.120,85.2914
56.130,90.1318
56.140,79.7959
56.150,80.4798
56.160,80.0724
56.170,79.7147
56.180,86.8054
56.190,87.6216
56.200,88.9525
56.210,84.5499
56.220,79.0667
56.230,87.1419
56.240,80.9330
56.250,78.2391
56.260,86.2994
56.270,84.2819
56.280,89.0747
56.290,81.1963
56.300,75.2491
56.310,75.3914
56.320,75.9645
56.330,88.0637
56.340,85.6397
56.350,82.4825
56.360,80.6698
56.370,74.7887
56.380,81.4395
56.390,84.8322
56.400,76.6672
56.410,80.3750
56.420,82.6566
56.430,84.8345
56.440,74.4988
56.450,76.9567
56.460,77.7580
56.470,70.4716
56.480,74.3718
56.490,83.3550
56.500,73.6616
56.510,69.1086
56.520,71.4847
56.530,71.7590
56.540,80.2445
56.550,73.2685
56.560,68.7468
56.570,72.0819
56.580,74.5393
56.590,80.1491
56.600,76.4948
56.610,70.4302
56.620,78.4996
56.630,73.2214
56.640,73.8216
56.650,66.6808
56.660,69.3012
56.670,78.5333
56.680,70.8795
56.690,71.9577
56.700,71.7060
56.710,77.4993
56.720,71.5159
56.730,70.3246
56.740,73.1751
56.750,67.2798
56.760,74.9464
56.770,71.8563
56.780,67.4445
56.790,74.3010
56.800,77.3325
56.810,67.1021
56.820,67.1753
56.830,72.3171
56.840,74.5375
56.850,79.7156
56.860,68.3466
56.870,73.3355
56.880,67.0892
56.890,67.0824
56.900,76.1872
56.910,79.6235
56.920,75.1097
56.930,76.8308
56.940,72.0697
56.950,74.2449
56.960,80.7555
56.970,78.1022
56.980,81.6227
56.990,68.6479
57.000,75.2244
57.010,68.9837
57.020,72.5346
57.030,71.9049
57.040,73.4137
57.050,82.8595
57.060,79.9101
57.070,78.8881
57.080,82.5247
57.090,73.5926
57.100,71.9343
57.110,81.0180
57.120,82.2227
57.130,78.7043
57.140,77.8530
57.150,83.7176
57.160,84.7922
57.170,74.1331
57.180,80.6483
57.190,85.9079
57.200,83.9770
57.210,78.4766
57.220,87.4023
57.230,73.5527
57.240,80.9740
57.250,83.3290
57.260,85.6860
57.270,76.6609
57.280,77.4102
57.290,76.8482
57.300,85.8720
57.310,86.5237
57.320,81.0509
57.330,89.0977
57.340,84.5499
57.350,75.9525
57.360,88.2604
57.370,84.1967
57.380,79.9584
57.390,84.8153
57.400,80.5554
57.410,90.3880
57.420,82.4578
57.430,76.7634
57.440,87.8295
57.450,89.4610
57.460,85.2635
57.470,78.9956
57.480,87.6910
57.490,78.9959
57.500,82.0001
57.510,81.4968
57.520,91.0403
57.530,87.9648
57.540,77.6355
57.550,80.5305
57.560,88.8208
57.570,84.3749
57.580,81.3839
57.590,83.2855
57.600,77.4330
57.610,87.7567
57.620,80.7969
57.630,81.4617
57.640,84.5656
57.650,89.2539
57.660,85.0921
57.670,81.6462
57.680,79.8004
57.690,78.0915
57.700,80.4867
57.710,82.5622
57.720,78.2148
57.730,77.5147
57.740,78.4721
57.750,84.7348
57.760,81.4250
57.770,74.1161
57.780,87.4539
57.790,75.3083
57.800,84.2733
57.810,84.0933
57.820,72.4804
57.830,82.0595
57.840,84.8549
57.850,73.7946
57.860,77.9475
57.870,76.3043
57.880,76.3340
57.890,80.9199
57.900,75.6226
57.910,81.7667
57.920,77.8266
57.930,77.2467
57.940,73.2680
57.950,79.4586
57.960,69.8398
57.970,70.6383
57.980,73.3939
57.990,76.1889
58.000,72.2308
58.010,68.6660
58.020,79.0059
58.030,69.9622
58.040,79.3523
58.050,74.5390
58.060,70.0733
58.070,75.5615
58.080,77.6324
58.090,78.7960
58.100,67.2345
58.110,72.5419
58.120,78.0200
58.130,73.1699
58.140,66.4963
58.150,78.1359
58.160,75.9105
58.170,68.4845
58.180,73.3724
58.190,68.4000
58.200,76.3622
58.210,67.4316
58.220,65.7519
58.230,71.0162
58.240,74.1487
58.250,70.0597
58.260,70.9134
58.270,66.4767
58.280,69.9925
58.290,77.2230
58.300,76.0876
58.310,76.0446
58.320,76.3412
58.330,67.4930
58.340,77.5851
58.350,69.9932
58.360,79.4205
58.370,79.0480
58.380,76.4004
58.390,67.1013
58.400,74.6274
58.410,78.2312
58.420,77.9579
58.430,81.6186
58.440,77.2718
58.450,79.9671
58.460,81.5785
58.470,78.8639
58.480,69.6008
58.490,71.9241
58.500,73.3696
58.510,79.7731
58.520,72.2817
58.530,74.4263
58.540,82.0017
58.550,84.4910
58.560,85.1341
58.570,80.7412
58.580,83.6849
58.590,80.5951
58.600,80.5201
58.610,84.7984
58.620,77.5029
58.630,76.8035
58.640,78.0547
58.650,78.9498
58.660,79.7045
58.670,75.6789
58.680,82.3038
58.690,74.7732
58.700,80.1244
58.710,80.4208
58.720,80.1024
58.730,75.9610
58.740,83.7052
58.750,81.4889
58.760,80.6591
58.770,81.1606
58.780,84.0994
58.790,88.3061
58.800,80.6926
58.810,82.3483
58.820,84.4795
58.830,77.5351
58.840,82.4825
58.850,81.8588
58.860,81.8900
58.870,83.6661
58.880,83.9622
58.890,89.2144
58.900,89.5622
58.910,87.2401
58.920,78.4906
58.930,90.3132
58.940,80.0132
58.950,81.7249
58.960,86.3352
58.970,83.0825
58.980,79.3626
58.990,79.2686
59.000,78.0332
59.010,91.2958
59.020,84.9632
59.030,79.3627
59.040,84.9108
59.050,79.3349
59.060,76.6999
59.070,81.5640
59.080,84.7145
59.090,86.2208
59.100,86.6837
59.110,87.2536
59.120,78.3639
59.130,81.6509
59.140,88.7610
59.150,86.6039
59.160,88.0471
59.170,75.9526
59.180,80.3551
59.190,87.3195
59.200,80.6477
59.210,79.5170
59.220,75.7165
59.230,78.1989
59.240,85.0816
59.250,78.9452
59.260,82.1500
59.270,76.9093
59.280,75.3557
59.290,76.0733
59.300,81.1043
59.310,75.0289
59.320,73.3880
59.330,80.4164
59.340,70.4339
59.350,81.5996
59.360,74.2535
59.370,78.8002
59.380,83.4083
59.390,71.4228
59.400,79.0937
59.410,73.4683
59.420,68.9656
59.430,75.2007
59.440,76.9840
59.450,77.6856
59.460,80.8828
59.470,68.0631
59.480,70.0353
59.490,78.5121
59.500,73.5681
59.510,70.7570
59.520,69.4118
59.530,79.9540
59.540,72.9897
59.550,69.8374
59.560,79.8607
59.570,77.3619
59.580,80.2318
59.590,77.1396
59.600,69.6036
59.610,66.9549
59.620,77.8060
59.630,65.8216
59.640,68.1935
59.650,76.0355
59.660,76.6686
59.670,78.4954
59.680,76.7473
59.690,69.1146
59.700,77.3729
59.710,79.6224
59.720,66.1816
59.730,71.2516
59.740,72.6683
59.750,74.1965
59.760,80.1016
59.770,67.3416
59.780,80.7909
59.790,79.0115
59.800,73.8718
59.810,69.7129
59.820,67.9892
59.830,73.1563
59.840,78.0937
59.850,70.9973
59.860,78.6876
59.870,69.6635
59.880,80.2063
59.890,74.2290
59.900,78.1992
59.910,80.4989
59.920,77.7566
59.930,70.9219
59.940,81.1851
59.950,81.3219
59.960,84.3999
59.970,79.4203
59.980,78.4888
59.990,80.2132
