t_s,envelope_uV
0.000,73.1024
0.010,64.2365
0.020,61.5079
0.030,62.5989
0.040,71.7106
0.050,68.5577
0.060,74.8886
0.070,68.4148
0.080,64.6884
0.090,66.3393
0.100,65.1455
0.110,68.9207
0.120,67.8496
0.130,66.7197
0.140,64.9485
0.150,69.9142
0.160,65.7806
0.170,73.8745
0.180,71.8847
0.190,70.9660
0.200,65.0550
0.210,75.0237
0.220,76.1224
0.230,73.7310
0.240,72.9942
0.250,65.7019
0.260,73.3185
0.270,76.1417
0.280,72.2837
0.290,75.0952
0.300,75.0775
0.310,65.6891
0.320,67.8450
0.330,75.6995
0.340,67.7449
0.350,66.3922
0.360,77.2497
0.370,73.6033
0.380,74.8173
0.390,77.4125
0.400,73.2399
0.410,67.6383
0.420,73.7011
0.430,66.5044
0.440,66.2284
0.450,70.3619
0.460,71.6130
0.470,73.5766
0.480,66.3822
0.490,70.8501
0.500,64.7106
0.510,73.4365
0.520,68.3254
0.530,71.6924
0.540,67.7202
0.550,69.2673
0.560,64.3543
0.570,68.5497
0.580,64.7892
0.590,71.2486
0.600,66.6391
0.610,64.2306
0.620,63.4544
0.630,67.9982
0.640,75.3273
0.650,68.2705
0.660,67.8108
0.670,61.5905
0.680,67.0795
0.690,73.4794
0.700,69.2489
0.710,62.8612
0.720,62.1559
0.730,69.1460
0.740,64.6876
0.750,66.9402
0.760,60.5201
0.770,65.7474
0.780,70.4690
0.790,71.0670
0.800,65.9754
0.810,66.4978
0.820,69.8534
0.830,63.7038
0.840,59.5287
0.850,64.9711
0.860,61.1957
0.870,58.5985
0.880,65.7899
0.890,59.3246
0.900,68.9659
0.910,68.4837
0.920,67.7914
0.930,61.9477
0.940,67.1071
0.950,62.2034
0.960,67.4262
0.970,58.2682
0.980,57.7902
0.990,63.9879
1.000,56.5911
1.010,58.0956
1.020,61.2533
1.030,56.5254
1.040,61.1774
1.050,60.8038
1.060,65.7016
1.070,64.8457
1.080,60.9601
1.090,56.3790
1.100,61.6705
1.110,61.2913
1.120,59.0970
1.130,62.9162
1.140,57.8634
1.150,61.1785
1.160,61.1762
1.170,61.5563
1.180,59.9436
1.190,65.6715
1.200,61.7984
1.210,61.3143
1.220,66.4600
1.230,64.2096
1.240,56.8430
1.250,59.9333
1.260,66.6534
1.270,65.1038
1.280,59.3264
1.290,61.8918
1.300,64.9411
1.310,63.3831
1.320,61.1170
1.330,61.3632
1.340,65.9161
1.350,62.7579
1.360,60.7321
1.370,67.1426
1.380,69.7714
1.390,69.4398
1.400,59.8237
1.410,66.7788
1.420,65.9836
1.430,62.3705
1.440,70.6149
1.450,63.9280
1.460,71.2999
1.470,70.4718
1.480,71.1331
1.490,64.0729
1.500,74.6628
1.510,73.4955
1.520,69.6713
1.530,65.0923
1.540,67.3479
1.550,67.3988
1.560,74.7627
1.570,65.4756
1.580,71.3156
1.590,70.8593
1.600,70.4892
1.610,70.6417
1.620,73.4325
1.630,67.5654
1.640,71.5720
1.650,72.1889
1.660,66.1141
1.670,75.1139
1.680,77.9123
1.690,77.3361
1.700,74.5296
1.710,66.8875
1.720,66.9103
1.730,70.1830
1.740,73.1138
1.750,76.7005
1.760,67.0652
1.770,70.2551
1.780,77.2858
1.790,71.6328
1.800,70.1609
1.810,70.5585
1.820,76.4588
1.830,77.4496
1.840,74.2870
1.850,69.1220
1.860,77.0516
1.870,72.5908
1.880,74.4063
1.890,73.3990
1.900,75.3975
1.910,71.7217
1.920,69.5949
1.930,75.7884
1.940,74.4139
1.950,74.2205
1.960,66.9389
1.970,65.4850
1.980,70.9289
1.990,76.9072
2.000,72.5420
2.010,67.0854
2.020,73.9353
2.030,68.0804
2.040,64.7974
2.050,72.8287
2.060,74.7034
2.070,72.8479
2.080,65.3628
2.090,70.4584
2.100,67.9203
2.110,64.7975
2.120,70.9060
2.130,71.6185
2.140,64.0687
2.150,67.9821
2.160,69.4810
2.170,62.0864
2.180,64.0147
2.190,66.3756
2.200,68.7079
2.210,68.8989
2.220,62.7282
2.230,70.8819
2.240,60.8648
2.250,61.0819
2.260,63.7187
2.270,66.4216
2.280,63.8630
2.290,58.1065
2.300,67.9132
2.310,62.3696
2.320,60.4589
2.330,64.0385
2.340,58.6756
2.350,60.3885
2.360,69.0379
2.370,68.6626
2.380,62.0662
2.390,67.8241
2.400,59.0887
2.410,66.0919
2.420,56.7716
2.430,67.1478
2.440,64.0524
2.450,55.6761
2.460,65.0586
2.470,61.1582
2.480,58.5335
2.490,67.7034
2.500,63.8845
2.510,61.0622
2.520,63.3609
2.530,66.3522
2.540,60.5673
2.550,65.7116
2.560,57.5279
2.570,59.9135
2.580,61.1872
2.590,57.2009
2.600,57.5266
2.610,61.7573
2.620,64.5841
2.630,57.9242
2.640,69.3176
2.650,69.0956
2.660,69.9848
2.670,59.7440
2.680,58.9655
2.690,62.6554
2.700,64.4194
2.710,69.1307
2.720,60.7416
2.730,71.2162
2.740,69.4150
2.750,69.4829
2.760,61.2669
2.770,60.3623
2.780,67.9362
2.790,66.3638
2.800,65.4765
2.810,70.2294
2.820,69.7898
2.830,69.6181
2.840,64.6571
2.850,66.4646
2.860,64.5098
2.870,68.5758
2.880,62.5906
2.890,67.9728
2.900,65.3425
2.910,65.8516
2.920,73.4012
2.930,67.4603
2.940,71.4494
2.950,75.7601
2.960,70.7695
2.970,73.5920
2.980,71.5234
2.990,71.5179
3.000,69.5982
3.010,68.8507
3.020,76.0375
3.030,64.4717
3.040,70.6360
3.050,71.5850
3.060,69.2066
3.070,65.8135
3.080,66.4342
3.090,68.0961
3.100,70.1357
3.110,77.9336
3.120,74.7398
3.130,77.0061
3.140,72.1862
3.150,67.0605
3.160,74.3397
3.170,78.6451
3.180,71.8631
3.190,73.3867
3.200,75.6602
3.210,69.0065
3.220,71.2443
3.230,73.8054
3.240,76.8904
3.250,75.6397
3.260,68.1545
3.270,71.2660
3.280,77.6108
3.290,70.6344
3.300,77.1697
3.310,71.4257
3.320,67.4805
3.330,76.0295
3.340,72.8767
3.350,69.1622
3.360,68.5312
3.370,75.0265
3.380,72.4047
3.390,72.9075
3.400,73.4249
3.410,73.2760
3.420,73.1057
3.430,67.1318
3.440,71.2449
3.450,67.9281
3.460,68.5011
3.470,68.8607
3.480,70.6619
3.490,72.8260
3.500,65.9910
3.510,71.9995
3.520,72.2792
3.530,68.4088
3.540,70.0852
3.550,65.5789
3.560,66.5738
3.570,61.0107
3.580,63.2973
3.590,67.3121
3.600,66.9242
3.610,61.9258
3.620,59.8497
3.630,63.5523
3.640,64.1222
3.650,61.2515
3.660,65.3930
3.670,62.2424
3.680,62.8444
3.690,65.7525
3.700,71.2594
3.710,68.9051
3.720,66.2516
3.730,66.9753
3.740,68.9098
3.750,66.1660
3.760,62.8846
3.770,60.6977
3.780,63.6476
3.790,69.7844
3.800,59.4434
3.810,59.4046
3.820,64.4552
3.830,68.0693
3.840,59.9222
3.850,60.6408
3.860,57.0575
3.870,64.8706
3.880,64.8148
3.890,68.4953
3.900,68.5722
3.910,67.8361
3.920,64.9585
3.930,63.4748
3.940,59.4525
3.950,60.5062
3.960,56.4500
3.970,66.8095
3.980,64.2709
3.990,68.1440
4.000,66.1421
4.010,65.6152
4.020,63.1626
4.030,59.9097
4.040,57.1477
4.050,58.0011
4.060,65.6122
4.070,69.5227
4.080,68.5733
4.090,64.7605
4.100,58.0223
4.110,61.8715
4.120,64.8578
4.130,65.7206
4.140,69.3009
4.150,61.4990
4.160,69.3973
4.170,58.7528
4.180,69.2755
4.190,58.8411
4.200,70.5027
4.210,69.3439
4.220,64.9178
4.230,62.4653
4.240,61.5181
4.250,61.2149
4.260,68.8001
4.270,72.8675
4.280,73.3068
4.290,62.8717
4.300,73.1590
4.310,67.1873
4.320,68.5158
4.330,68.0417
4.340,65.9295
4.350,63.3533
4.360,66.1024
4.370,66.8425
4.380,68.2829
4.390,71.0319
4.400,63.6931
4.410,73.1081
4.420,75.2559
4.430,70.8118
4.440,75.4950
4.450,69.6840
4.460,78.0344
4.470,68.6761
4.480,75.7522
4.490,70.7549
4.500,71.8155
4.510,67.9063
4.520,67.2182
4.530,67.0062
4.540,66.3891
4.550,72.6854
4.560,70.1159
4.570,71.6839
4.580,74.9984
4.590,76.8726
4.600,78.1219
4.610,73.3238
4.620,76.4679
4.630,71.5171
4.640,77.8667
4.650,71.4112
4.660,78.4832
4.670,70.9184
4.680,67.1976
4.690,66.2972
4.700,67.0095
4.710,77.1454
4.720,73.0502
4.730,69.7921
4.740,74.3571
4.750,74.1046
4.760,67.5405
4.770,70.2925
4.780,78.3789
4.790,68.8812
4.800,68.0296
4.810,66.6749
4.820,65.4473
4.830,65.1144
4.840,74.8574
4.850,73.8021
4.860,69.2794
4.870,68.3063
4.880,68.3127
4.890,68.1445
4.900,65.7549
4.910,66.0076
4.920,69.8034
4.930,68.4961
4.940,74.4225
4.950,72.0966
4.960,66.2266
4.970,70.4998
4.980,69.3341
4.990,62.9740
5.000,71.6468
5.010,70.3880
5.020,63.3387
5.030,64.7415
5.040,60.3897
5.050,63.7782
5.060,68.6965
5.070,61.7637
5.080,62.0760
5.090,63.9831
5.100,64.3192
5.110,63.3309
5.120,62.5843
5.130,61.0060
5.140,67.5352
5.150,58.3957
5.160,70.5741
5.170,70.0403
5.180,58.8535
5.190,58.9737
5.200,61.2653
5.210,59.9718
5.220,64.2008
5.230,59.8049
5.240,62.1258
5.250,63.8786
5.260,61.9914
5.270,63.1631
5.280,62.2270
5.290,63.7007
5.300,62.0119
5.310,65.0581
5.320,60.0630
5.330,68.1836
5.340,59.5552
5.350,59.4326
5.360,61.0466
5.370,60.9868
5.380,56.7211
5.390,65.6967
5.400,63.8598
5.410,58.5849
5.420,67.0256
5.430,61.3137
5.440,62.5293
5.450,66.3647
5.460,62.6279
5.470,67.1116
5.480,65.9573
5.490,66.8042
5.500,66.7468
5.510,65.0338
5.520,63.8732
5.530,65.0094
5.540,59.0765
5.550,58.0985
5.560,67.6203
5.570,59.5697
5.580,69.6118
5.590,68.0766
5.600,65.7123
5.610,71.9869
5.620,63.6684
5.630,64.7613
5.640,71.9830
5.650,61.1794
5.660,65.8267
5.670,60.1735
5.680,63.0457
5.690,65.9439
5.700,69.5505
5.710,73.5985
5.720,65.6541
5.730,74.7480
5.740,73.6999
5.750,63.8696
5.760,64.6231
5.770,72.2435
5.780,67.9336
5.790,70.8190
5.800,74.4480
5.810,74.8920
5.820,74.2889
5.830,64.2565
5.840,67.4576
5.850,67.8177
5.860,69.3892
5.870,74.6964
5.880,65.5518
5.890,65.4680
5.900,76.3991
5.910,70.3583
5.920,66.5454
5.930,68.8980
5.940,73.5703
5.950,72.3272
5.960,67.5569
5.970,74.9352
5.980,70.8182
5.990,66.7474
6.000,66.4185
6.010,72.7330
6.020,75.5196
6.030,77.3928
6.040,75.0350
6.050,67.2870
6.060,77.0215
6.070,74.7482
6.080,69.0518
6.090,70.2074
6.100,71.6780
6.110,79.2825
6.120,68.7813
6.130,68.5200
6.140,73.3601
6.150,68.2199
6.160,68.5392
6.170,75.7492
6.180,78.9443
6.190,71.5395
6.200,77.9039
6.210,68.3718
6.220,70.6929
6.230,77.1499
6.240,75.5076
6.250,65.2955
6.260,68.8579
6.270,77.3083
6.280,68.2649
6.290,74.0644
6.300,69.5656
6.310,70.9508
6.320,76.3113
6.330,71.8758
6.340,67.7997
6.350,70.6722
6.360,67.0269
6.370,68.5262
6.380,63.8488
6.390,69.8301
6.400,61.9993
6.410,65.0563
6.420,71.0222
6.430,69.0135
6.440,69.9180
6.450,69.8151
6.460,70.3706
6.470,61.5988
6.480,65.7738
6.490,61.6015
6.500,65.8080
6.510,63.0739
6.520,71.0131
6.530,68.9848
6.540,62.8821
6.550,58.9703
6.560,61.0738
6.570,71.3157
6.580,61.8493
6.590,67.6772
6.600,61.6227
6.610,60.0097
6.620,62.1948
6.630,58.1858
6.640,67.0217
6.650,59.1919
6.660,62.0751
6.670,58.8118
6.680,63.1122
6.690,59.3866
6.700,62.9339
6.710,66.0670
6.720,65.7058
6.730,58.3242
6.740,59.9411
6.750,59.6236
6.760,62.3153
6.770,59.3050
6.780,68.6645
6.790,68.0832
6.800,66.6547
6.810,66.7047
6.820,61.0821
6.830,68.1441
6.840,62.9932
6.850,68.8363
6.860,64.4783
6.870,66.0936
6.880,62.5722
6.890,69.1714
6.900,59.0657
6.910,60.8885
6.920,56.9862
6.930,66.3659
6.940,65.8524
6.950,69.0865
6.960,64.1313
6.970,63.4731
6.980,70.2586
6.990,58.4390
7.000,71.2149
7.010,68.2968
7.020,64.6103
7.030,70.7531
7.040,68.2113
7.050,66.4187
7.060,71.3230
7.070,67.6153
7.080,67.2436
7.090,63.3393
7.100,70.5624
7.110,68.9249
7.120,73.9578
7.130,72.6449
7.140,70.0338
7.150,62.3929
7.160,64.3955
7.170,71.3227
7.180,73.2468
7.190,74.7700
7.200,63.8508
7.210,71.6659
7.220,70.6792
7.230,71.5195
7.240,65.6235
7.250,67.0754
7.260,76.2722
7.270,76.7122
7.280,77.6191
7.290,73.4183
7.300,76.4561
7.310,72.8067
7.320,73.2890
7.330,67.4685
7.340,66.9706
7.350,69.5750
7.360,66.7893
7.370,69.8441
7.380,70.9657
7.390,73.2163
7.400,76.8566
7.410,79.1307
7.420,71.8109
7.430,78.9771
7.440,66.6694
7.450,78.6234
7.460,75.8567
7.470,77.5364
7.480,71.0730
7.490,78.5076
7.500,70.7257
7.510,77.8768
7.520,72.3589
7.530,72.1013
7.540,72.1296
7.550,77.5378
7.560,69.0553
7.570,75.2140
7.580,73.7021
7.590,74.8751
7.600,79.6714
7.610,70.0917
7.620,79.0394
7.630,69.0847
7.640,76.3627
7.650,77.1751
7.660,69.3835
7.670,71.4621
7.680,70.4035
7.690,68.8026
7.700,71.4233
7.710,66.3290
7.720,71.7065
7.730,75.6564
7.740,65.6831
7.750,64.2141
7.760,64.1404
7.770,66.6180
7.780,70.5109
7.790,68.3702
7.800,74.1528
7.810,66.1436
7.820,64.2709
7.830,73.4700
7.840,74.8191
7.850,71.3091
7.860,66.3644
7.870,71.6386
7.880,72.9781
7.890,61.4946
7.900,73.0332
7.910,62.0506
7.920,61.8601
7.930,62.6365
7.940,71.9504
7.950,59.6109
7.960,67.6674
7.970,67.3484
7.980,59.9223
7.990,58.6754
8.000,59.2936
8.010,61.1227
8.020,70.4044
8.030,62.5273
8.040,70.7661
8.050,63.6830
8.060,70.5479
8.070,65.2507
8.080,61.8564
8.090,63.2147
8.100,69.8480
8.110,57.9676
8.120,60.0617
8.130,62.9270
8.140,69.4115
8.150,68.2634
8.160,59.5130
8.170,63.7150
8.180,67.4136
8.190,62.9440
8.200,64.6616
8.210,60.8533
8.220,69.3286
8.230,64.5023
8.240,59.5550
8.250,66.3628
8.260,59.4532
8.270,57.2629
8.280,63.7921
8.290,61.7712
8.300,57.2799
8.310,65.2909
8.320,67.5345
8.330,67.2719
8.340,58.5811
8.350,57.8779
8.360,63.6269
8.370,63.7107
8.380,68.5099
8.390,64.8388
8.400,69.7050
8.410,63.1714
8.420,58.8909
8.430,71.3897
8.440,66.8014
8.450,69.3989
8.460,62.0679
8.470,63.5167
8.480,67.5996
8.490,59.9769
8.500,62.1353
8.510,67.3834
8.520,63.9316
8.530,60.7958
8.540,72.5416
8.550,71.5911
8.560,70.9653
8.570,70.8962
8.580,71.1077
8.590,62.6744
8.600,73.1277
8.610,70.2576
8.620,66.8809
8.630,76.0862
8.640,71.6494
8.650,71.5849
8.660,74.0936
8.670,70.0379
8.680,74.7998
8.690,77.1164
8.700,66.2841
8.710,72.6819
8.720,67.6896
8.730,66.6000
8.740,66.9101
8.750,70.6300
8.760,70.9336
8.770,76.3304
8.780,74.2961
8.790,68.0562
8.800,71.3837
8.810,69.8023
8.820,73.6162
8.830,76.2232
8.840,70.2977
8.850,76.3033
8.860,75.6410
8.870,67.0467
8.880,71.5725
8.890,73.5869
8.900,77.1253
8.910,75.2923
8.920,68.2851
8.930,76.0830
8.940,77.2030
8.950,80.2426
8.960,69.5236
8.970,72.0384
8.980,73.0207
8.990,68.8029
9.000,72.4506
9.010,74.6707
9.020,68.2336
9.030,72.8877
9.040,78.2900
9.050,66.3335
9.060,67.5742
9.070,67.8147
9.080,70.4172
9.090,69.2531
9.100,74.5193
9.110,69.3302
9.120,66.8465
9.130,69.1366
9.140,74.4006
9.150,73.2568
9.160,73.4821
9.170,74.7600
9.180,74.9549
9.190,70.8396
9.200,70.8513
9.210,74.1128
9.220,75.7687
9.230,75.3967
9.240,71.4220
9.250,62.6684
9.260,75.3178
9.270,67.0335
9.280,64.3842
9.290,73.2471
9.300,73.5696
9.310,62.7632
9.320,69.2913
9.330,63.1102
9.340,68.7098
9.350,66.3682
9.360,66.8947
9.370,61.0376
9.380,65.8238
9.390,70.2222
9.400,69.2425
9.410,69.5361
9.420,68.1527
9.430,64.0066
9.440,69.6927
9.450,60.2595
9.460,70.3171
9.470,67.5049
9.480,63.1332
9.490,58.0348
9.500,58.4145
9.510,65.6857
9.520,60.1353
9.530,65.2479
9.540,68.9795
9.550,61.7364
9.560,68.2738
9.570,66.2941
9.580,57.6195
9.590,63.1108
9.600,68.2131
9.610,68.5522
9.620,66.0658
9.630,69.0975
9.640,59.3772
9.650,60.0283
9.660,67.3657
9.670,59.9141
9.680,59.7646
9.690,58.4559
9.700,68.0675
9.710,62.6961
9.720,60.3182
9.730,58.5556
9.740,62.4378
9.750,62.2878
9.760,67.2262
9.770,64.1064
9.780,60.0062
9.790,59.2658
9.800,62.9148
9.810,67.1653
9.820,58.7018
9.830,66.4157
9.840,58.9968
9.850,65.2034
9.860,65.4158
9.870,66.5618
9.880,61.1239
9.890,69.1224
9.900,61.8263
9.910,66.1914
9.920,69.1171
9.930,64.4430
9.940,69.5076
9.950,61.4441
9.960,61.0796
9.970,64.5628
9.980,69.5794
9.990,66.3953
10.000,66.0501
10.010,68.7064
10.020,73.7499
10.030,67.5637
10.040,72.8755
10.050,66.7498
10.060,65.0359
10.070,73.0917
10.080,66.1850
10.090,76.9772
10.100,68.5446
10.110,70.8380
10.120,76.7766
10.130,74.7915
10.140,71.0959
10.150,74.2436
10.160,77.4806
10.170,68.3274
10.180,69.6081
10.190,73.8483
10.200,66.6863
10.210,71.5331
10.220,70.3373
10.230,73.2063
10.240,77.0987
10.250,67.5563
10.260,78.2102
10.270,73.8538
10.280,76.3894
10.290,72.3612
10.300,70.5657
10.310,74.3028
10.320,77.6203
10.330,76.9921
10.340,72.5449
10.350,67.8575
10.360,79.6584
10.370,77.9263
10.380,70.3291
10.390,75.2391
10.400,78.8280
10.410,72.6544
10.420,75.8847
10.430,75.6196
10.440,78.8059
10.450,78.3913
10.460,71.7374
10.470,74.0431
10.480,73.9193
10.490,70.5102
10.500,77.0887
10.510,69.0676
10.520,67.6134
10.530,77.1347
10.540,66.3206
10.550,78.2734
10.560,77.5763
10.570,67.1639
10.580,69.6830
10.590,69.1945
10.600,74.7377
10.610,71.5600
10.620,76.3585
10.630,68.9855
10.640,67.7296
10.650,70.2940
10.660,68.5604
10.670,71.3343
10.680,73.5257
10.690,64.8890
10.700,67.9932
10.710,72.6580
10.720,62.3286
10.730,65.5310
10.740,72.3232
10.750,66.9383
10.760,74.0786
10.770,61.0631
10.780,65.7871
10.790,68.9993
10.800,60.2821
10.810,64.3639
10.820,70.2243
10.830,67.5636
10.840,68.3247
10.850,60.4899
10.860,59.1912
10.870,61.3147
10.880,60.4872
10.890,61.5798
10.900,68.0091
10.910,67.0878
10.920,70.4477
10.930,67.0415
10.940,58.9700
10.950,64.8113
10.960,67.9150
10.970,60.2561
10.980,58.2747
10.990,65.4054
11.000,62.4362
11.010,70.1689
11.020,67.5917
11.030,59.2625
11.040,63.9843
11.050,62.1877
11.060,61.3001
11.070,61.8968
11.080,64.5430
11.090,61.2907
11.100,67.3690
11.110,67.2867
11.120,65.2894
11.130,59.9208
11.140,65.3350
11.150,63.0812
11.160,60.7881
11.170,64.7750
11.180,61.5030
11.190,57.6535
11.200,60.7151
11.210,64.0630
11.220,60.9734
11.230,67.0730
11.240,60.1600
11.250,63.3054
11.260,67.6116
11.270,64.2648
11.280,61.8372
11.290,60.2278
11.300,72.1784
11.310,70.2026
11.320,61.1954
11.330,71.6641
11.340,64.1386
11.350,65.6935
11.360,70.0449
11.370,68.6087
11.380,61.9536
11.390,74.3259
11.400,68.0056
11.410,65.0924
11.420,64.3880
11.430,68.5792
11.440,72.8271
11.450,65.5419
11.460,65.3794
11.470,75.9195
11.480,70.4537
11.490,70.2595
11.500,72.5955
11.510,68.1882
11.520,64.8738
11.530,65.1420
11.540,64.6614
11.550,68.6645
11.560,65.2889
11.570,65.3651
11.580,70.4699
11.590,78.5878
11.600,75.3929
11.610,70.1485
11.620,75.6840
11.630,69.7035
11.640,78.7690
11.650,71.5156
11.660,67.4989
11.670,75.7331
11.680,67.1938
11.690,71.0766
11.700,77.1730
11.710,71.5930
11.720,74.8052
11.730,80.1556
11.740,71.3850
11.750,73.6827
11.760,74.9915
11.770,80.0568
11.780,73.5177
11.790,70.5263
11.800,80.0348
11.810,67.5436
11.820,69.3068
11.830,69.3451
11.840,80.2236
11.850,74.0799
11.860,69.0634
11.870,70.1485
11.880,74.6365
11.890,70.1887
11.900,72.3324
11.910,80.1187
11.920,67.1874
11.930,79.2970
11.940,74.1096
11.950,76.6200
11.960,74.5652
11.970,72.1576
11.980,78.0651
11.990,67.5019
12.000,77.5444
12.010,67.2321
12.020,76.1808
12.030,71.7195
12.040,67.7495
12.050,66.9122
12.060,68.5547
12.070,64.5100
12.080,68.1553
12.090,72.8030
12.100,70.7179
12.110,71.9233
12.120,72.9838
12.130,65.0575
12.140,70.5228
12.150,72.2739
12.160,71.1539
12.170,68.3882
12.180,68.3812
12.190,63.1331
12.200,72.4564
12.210,68.4178
12.220,64.4352
12.230,63.0031
12.240,69.8948
12.250,68.7463
12.260,61.6495
12.270,70.1953
12.280,67.6473
12.290,61.6263
12.300,67.5568
12.310,66.0403
12.320,70.8925
12.330,67.1081
12.340,64.1285
12.350,70.9044
12.360,66.6857
12.370,61.4064
12.380,60.7625
12.390,60.2125
12.400,62.2693
12.410,66.9084
12.420,58.2814
12.430,61.8153
12.440,64.2170
12.450,58.5581
12.460,66.3063
12.470,62.1575
12.480,69.7506
12.490,68.1565
12.500,62.7752
12.510,67.7711
12.520,62.9799
12.530,70.1727
12.540,66.6900
12.550,68.1797
12.560,59.5231
12.570,60.1587
12.580,70.6043
12.590,63.9739
12.600,69.0847
12.610,66.6043
12.620,65.4337
12.630,65.8098
12.640,69.1474
12.650,61.0832
12.660,65.6208
12.670,68.7163
12.680,71.7904
12.690,63.5057
12.700,67.6967
12.710,63.9672
12.720,71.3285
12.730,69.2541
12.740,64.3921
12.750,72.2402
12.760,69.2837
12.770,61.3403
12.780,64.5668
12.790,69.4235
12.800,65.6670
12.810,65.2897
12.820,63.9768
12.830,75.0217
12.840,62.0953
12.850,70.9476
12.860,69.0311
12.870,63.0276
12.880,64.2254
12.890,66.4583
12.900,68.1996
12.910,66.7151
12.920,66.7781
12.930,67.0914
12.940,73.1717
12.950,69.5474
12.960,70.7900
12.970,73.3301
12.980,67.2843
12.990,68.6902
13.000,73.6795
13.010,74.9330
13.020,76.0560
13.030,71.4418
13.040,78.7581
13.050,76.9489
13.060,71.4754
13.070,77.2199
13.080,72.4893
13.090,72.1661
13.100,74.6953
13.110,74.9542
13.120,68.5032
13.130,76.5562
13.140,79.6324
13.150,71.6371
13.160,80.8945
13.170,71.8517
13.180,78.8985
13.190,67.8991
13.200,70.2915
13.210,78.3914
13.220,77.1306
13.230,78.1587
13.240,76.8139
13.250,78.1196
13.260,76.7135
13.270,70.7961
13.280,72.6933
13.290,73.2486
13.300,69.1093
13.310,78.5015
13.320,70.3867
13.330,75.2618
13.340,75.7870
13.350,79.5256
13.360,72.4513
13.370,71.9701
13.380,69.0729
13.390,73.9217
13.400,77.0884
13.410,78.0922
13.420,75.1434
13.430,70.9718
13.440,75.3639
13.450,72.9541
13.460,66.2983
13.470,65.6679
13.480,74.0590
13.490,74.5691
13.500,68.6325
13.510,71.6873
13.520,73.2365
13.530,68.6107
13.540,63.5680
13.550,70.7165
13.560,63.6071
13.570,64.7598
13.580,74.6072
13.590,71.8221
13.600,63.1900
13.610,63.3043
13.620,67.8815
13.630,65.1622
13.640,67.6922
13.650,69.9041
13.660,72.5916
13.670,64.0920
13.680,70.6477
13.690,64.6964
13.700,71.6358
13.710,66.2531
13.720,66.4975
13.730,67.8615
13.740,67.9563
13.750,68.6715
13.760,68.6225
13.770,66.8527
13.780,67.0704
13.790,60.4678
13.800,59.1019
13.810,63.5473
13.820,67.1988
13.830,59.8479
13.840,62.1569
13.850,58.2834
13.860,58.9063
13.870,65.9122
13.880,58.7142
13.890,62.3613
13.900,57.1906
13.910,62.1792
13.920,62.9559
13.930,62.6308
13.940,58.2727
13.950,69.5198
13.960,69.6470
13.970,61.4674
13.980,58.6323
13.990,68.4188
14.000,69.4894
14.010,67.8762
14.020,67.7048
14.030,64.3524
14.040,69.8748
14.050,63.9728
14.060,63.1552
14.070,64.9081
14.080,59.9922
14.090,64.0728
14.100,59.2856
14.110,64.3679
14.120,63.6188
14.130,66.1841
14.140,67.5068
14.150,64.5573
14.160,69.4634
14.170,71.2715
14.180,72.7606
14.190,73.0581
14.200,71.9811
14.210,66.0121
14.220,62.2858
14.230,71.1868
14.240,72.7765
14.250,70.3693
14.260,70.7661
14.270,63.0796
14.280,69.3578
14.290,71.0445
14.300,71.5871
14.310,67.2617
14.320,73.3777
14.330,73.6028
14.340,71.2178
14.350,65.1867
14.360,70.9030
14.370,76.4824
14.380,68.7634
14.390,67.2209
14.400,71.1507
14.410,69.1879
14.420,68.4504
14.430,71.8420
14.440,73.0841
14.450,68.3883
14.460,69.7017
14.470,78.3293
14.480,69.9415
14.490,74.9201
14.500,71.7381
14.510,68.6933
14.520,75.2033
14.530,71.3263
14.540,73.7260
14.550,73.5656
14.560,68.5216
14.570,70.5700
14.580,73.9793
14.590,75.4823
14.600,81.2199
14.610,75.5256
14.620,79.9266
14.630,77.3592
14.640,69.5422
14.650,78.8721
14.660,79.1516
14.670,80.8624
14.680,77.1980
14.690,75.0812
14.700,76.6634
14.710,77.1137
14.720,79.1651
14.730,70.7385
14.740,67.9188
14.750,77.4129
14.760,70.1084
14.770,73.4342
14.780,72.9961
14.790,76.5480
14.800,70.7949
14.810,79.3908
14.820,73.5470
14.830,77.1093
14.840,70.6897
14.850,73.3601
14.860,65.7877
14.870,74.6663
14.880,78.7046
14.890,73.4273
14.900,73.4216
14.910,74.3001
14.920,67.0595
14.930,69.9853
14.940,76.0011
14.950,72.4153
14.960,73.0312
14.970,76.4126
14.980,73.7671
14.990,74.3287
15.000,71.2512
15.010,67.2173
15.020,70.7781
15.030,73.0659
15.040,79.2719
15.050,77.3168
15.060,76.2590
15.070,73.1990
15.080,79.0705
15.090,75.9539
15.100,81.5506
15.110,78.4068
15.120,77.9261
15.130,81.7885
15.140,78.7739
15.150,87.4924
15.160,80.9508
15.170,93.6459
15.180,89.2707
15.190,90.6974
15.200,92.3406
15.210,91.4068
15.220,98.3800
15.230,95.3069
15.240,96.9273
15.250,100.3801
15.260,96.6407
15.270,95.3326
15.280,97.0440
15.290,101.0056
15.300,99.5240
15.310,98.2699
15.320,106.3475
15.330,101.0718
15.340,107.9627
15.350,106.4786
15.360,105.2725
15.370,111.1486
15.380,106.6675
15.390,110.2679
15.400,105.2051
15.410,116.7065
15.420,119.0036
15.430,117.2511
15.440,120.0356
15.450,116.6808
15.460,115.9881
15.470,115.1310
15.480,116.1748
15.490,117.9501
15.500,115.7716
15.510,122.6260
15.520,129.2816
15.530,131.2805
15.540,120.2966
15.550,128.6031
15.560,127.2886
15.570,126.3292
15.580,134.4724
15.590,130.5129
15.600,134.4630
15.610,135.1071
15.620,131.6156
15.630,128.5325
15.640,138.1253
15.650,134.2210
15.660,136.1198
15.670,133.0190
15.680,142.5445
15.690,147.9460
15.700,136.6338
15.710,141.9609
15.720,148.1812
15.730,144.9628
15.740,152.0835
15.750,153.2265
15.760,143.6722
15.770,147.6052
15.780,150.2322
15.790,155.0324
15.800,153.5874
15.810,148.8497
15.820,149.9849
15.830,160.7316
15.840,162.3762
15.850,155.4292
15.860,163.2522
15.870,155.9710
15.880,156.5990
15.890,160.4908
15.900,161.7419
15.910,168.3358
15.920,171.1880
15.930,170.4973
15.940,172.7461
15.950,172.6366
15.960,168.3240
15.970,176.4578
15.980,167.9453
15.990,176.5417
16.000,175.9066
16.010,177.2889
16.020,175.4233
16.030,173.3473
16.040,176.5742
16.050,168.9781
16.060,172.1198
16.070,179.4937
16.080,170.5913
16.090,177.1975
16.100,173.2837
16.110,168.2819
16.120,177.0248
16.130,179.9756
16.140,171.9805
16.150,170.2544
16.160,168.8113
16.170,174.7121
16.180,171.5057
16.190,170.8687
16.200,170.3885
16.210,171.7973
16.220,174.4396
16.230,176.5716
16.240,169.8804
16.250,171.5709
16.260,170.9646
16.270,174.8213
16.280,174.8308
16.290,173.2811
16.300,171.8154
16.310,172.6488
16.320,179.6333
16.330,179.4991
16.340,173.5977
16.350,177.1354
16.360,172.0025
16.370,171.7665
16.380,177.9699
16.390,177.6953
16.400,177.9518
16.410,173.6321
16.420,174.7519
16.430,178.5577
16.440,171.1050
16.450,180.5475
16.460,172.6616
16.470,170.8119
16.480,167.5158
16.490,168.5970
16.500,173.7224
16.510,176.5762
16.520,168.4556
16.530,179.2081
16.540,169.0758
16.550,170.1242
16.560,171.8136
16.570,175.1533
16.580,172.2297
16.590,176.8126
16.600,174.8413
16.610,177.7006
16.620,167.4350
16.630,175.2532
16.640,175.9779
16.650,174.4419
16.660,178.2039
16.670,174.3011
16.680,170.4406
16.690,172.1633
16.700,179.0565
16.710,179.3761
16.720,180.0091
16.730,167.7944
16.740,171.7612
16.750,173.0866
16.760,178.1674
16.770,172.2893
16.780,179.8511
16.790,175.7278
16.800,167.4582
16.810,170.2085
16.820,178.1247
16.830,175.6622
16.840,173.4612
16.850,179.8907
16.860,175.6712
16.870,179.1542
16.880,169.6125
16.890,173.6810
16.900,169.2012
16.910,177.3507
16.920,174.0881
16.930,170.2600
16.940,173.8719
16.950,174.4983
16.960,180.1320
16.970,177.7757
16.980,175.6365
16.990,173.0178
17.000,71.0670
17.010,65.1192
17.020,69.4164
17.030,65.8068
17.040,70.7912
17.050,67.1400
17.060,72.2649
17.070,63.0983
17.080,62.1430
17.090,64.6098
17.100,67.2842
17.110,62.9532
17.120,75.3084
17.130,75.4805
17.140,73.5657
17.150,70.8046
17.160,66.5438
17.170,66.4370
17.180,68.9912
17.190,66.7505
17.200,66.3530
17.210,70.6446
17.220,68.2337
17.230,72.1949
17.240,68.0881
17.250,70.4406
17.260,78.3972
17.270,71.9686
17.280,71.2761
17.290,75.1947
17.300,67.8248
17.310,68.5457
17.320,72.0355
17.330,71.5989
17.340,76.5891
17.350,77.3226
17.360,70.5493
17.370,70.7881
17.380,75.0562
17.390,79.8358
17.400,79.0709
17.410,80.2767
17.420,76.8440
17.430,77.5832
17.440,74.8791
17.450,72.4991
17.460,80.6961
17.470,81.6319
17.480,68.5627
17.490,72.3330
17.500,70.3876
17.510,68.5543
17.520,79.9187
17.530,81.6920
17.540,79.9505
17.550,69.9593
17.560,80.6298
17.570,77.6556
17.580,74.6117
17.590,71.4834
17.600,80.3915
17.610,73.7317
17.620,70.7364
17.630,75.7381
17.640,79.2918
17.650,68.4893
17.660,78.1708
17.670,71.5362
17.680,68.6543
17.690,70.0361
17.700,78.7431
17.710,74.6936
17.720,70.4284
17.730,78.7318
17.740,78.9467
17.750,75.0357
17.760,72.6705
17.770,68.2509
17.780,66.8945
17.790,72.4022
17.800,68.0910
17.810,77.4419
17.820,70.9479
17.830,72.0064
17.840,72.3609
17.850,74.3060
17.860,71.1983
17.870,73.0957
17.880,73.5394
17.890,67.7228
17.900,68.1957
17.910,65.0943
17.920,66.3527
17.930,73.3927
17.940,74.0803
17.950,66.6128
17.960,63.9331
17.970,64.0955
17.980,64.4089
17.990,62.3722
18.000,70.7491
18.010,68.3213
18.020,72.0434
18.030,71.8594
18.040,59.5737
18.050,70.0450
18.060,64.9086
18.070,68.6165
18.080,62.3803
18.090,64.3129
18.100,60.8424
18.110,71.1585
18.120,69.3928
18.130,70.4534
18.140,59.3649
18.150,64.1079
18.160,62.6990
18.170,66.9186
18.180,61.3255
18.190,57.8887
18.200,67.2951
18.210,63.3785
18.220,61.1182
18.230,62.2971
18.240,65.5430
18.250,69.6263
18.260,66.7785
18.270,65.7443
18.280,62.5063
18.290,63.1078
18.300,61.0863
18.310,59.1523
18.320,58.4748
18.330,68.3006
18.340,67.3307
18.350,66.8223
18.360,60.7306
18.370,71.8482
18.380,68.0782
18.390,70.1939
18.400,70.3540
18.410,72.4920
18.420,60.3441
18.430,64.7730
18.440,61.7666
18.450,61.7899
18.460,66.8299
18.470,67.1514
18.480,68.6727
18.490,74.7094
18.500,64.5385
18.510,62.9066
18.520,70.8497
18.530,65.8692
18.540,73.5488
18.550,74.2314
18.560,70.9641
18.570,76.0643
18.580,65.0479
18.590,69.9430
18.600,66.2772
18.610,76.9782
18.620,66.5486
18.630,70.2337
18.640,76.3729
18.650,73.9167
18.660,73.1334
18.670,74.7900
18.680,70.7335
18.690,78.2644
18.700,78.8777
18.710,69.7558
18.720,79.7114
18.730,72.9674
18.740,67.7697
18.750,73.7866
18.760,73.8045
18.770,74.6290
18.780,76.5976
18.790,80.3772
18.800,68.8030
18.810,69.6265
18.820,81.3799
18.830,80.4931
18.840,75.5335
18.850,78.7919
18.860,75.3831
18.870,76.7635
18.880,80.3921
18.890,76.7659
18.900,72.1306
18.910,74.1042
18.920,79.5908
18.930,72.3519
18.940,78.3616
18.950,79.6968
18.960,76.8164
18.970,76.0257
18.980,80.3750
18.990,71.1823
19.000,74.3393
19.010,78.3145
19.020,77.4714
19.030,80.1183
19.040,75.1481
19.050,69.6389
19.060,71.4251
19.070,69.9337
19.080,79.1873
19.090,71.2764
19.100,71.9343
19.110,76.2510
19.120,70.6025
19.130,73.9626
19.140,70.2177
19.150,72.4949
19.160,74.6721
19.170,66.7281
19.180,67.8974
19.190,68.7095
19.200,76.1601
19.210,70.1413
19.220,74.2012
19.230,68.7397
19.240,67.4829
19.250,66.6649
19.260,70.2875
19.270,66.7224
19.280,66.8696
19.290,69.2929
19.300,68.8045
19.310,64.4122
19.320,70.8427
19.330,63.4273
19.340,70.3770
19.350,65.8550
19.360,65.9675
19.370,64.8148
19.380,63.8602
19.390,71.0896
19.400,64.5945
19.410,67.4081
19.420,68.0888
19.430,68.2260
19.440,65.1906
19.450,66.3801
19.460,71.2290
19.470,61.5050
19.480,66.2694
19.490,66.0380
19.500,68.6342
19.510,67.7325
19.520,66.6066
19.530,59.5079
19.540,59.5821
19.550,65.9427
19.560,58.9756
19.570,68.1708
19.580,60.5794
19.590,69.3402
19.600,65.0145
19.610,62.2151
19.620,68.3165
19.630,58.6315
19.640,63.9149
19.650,61.2201
19.660,60.0895
19.670,60.5342
19.680,67.3826
19.690,61.9424
19.700,58.3119
19.710,71.3670
19.720,60.1342
19.730,64.0840
19.740,63.0732
19.750,65.7975
19.760,67.8248
19.770,72.1141
19.780,70.7155
19.790,67.4172
19.800,59.9376
19.810,68.9769
19.820,64.3963
19.830,65.9729
19.840,63.2503
19.850,66.7075
19.860,69.6904
19.870,61.6714
19.880,64.4299
19.890,69.1872
19.900,74.2393
19.910,61.8098
19.920,63.7757
19.930,74.6863
19.940,65.8003
19.950,70.0832
19.960,74.8603
19.970,69.1735
19.980,66.5625
19.990,73.2709
20.000,66.9365
20.010,63.8293
20.020,68.2916
20.030,68.8734
20.040,70.5537
20.050,73.9026
20.060,70.3866
20.070,66.1802
20.080,70.5959
20.090,69.3893
20.100,71.3984
20.110,69.5036
20.120,74.3118
20.130,76.7115
20.140,69.6078
20.150,70.0822
20.160,73.8148
20.170,67.5146
20.180,71.1634
20.190,71.3551
20.200,72.9207
20.210,69.7687
20.220,76.2622
20.230,73.3809
20.240,70.9699
20.250,75.1522
20.260,70.4204
20.270,69.8858
20.280,72.5911
20.290,79.1070
20.300,73.1589
20.310,78.5319
20.320,76.9508
20.330,70.9762
20.340,70.4495
20.350,75.2964
20.360,75.1516
20.370,77.6135
20.380,70.5877
20.390,80.5922
20.400,72.9788
20.410,80.4821
20.420,77.0381
20.430,75.0441
20.440,69.4055
20.450,80.9081
20.460,78.7486
20.470,80.9319
20.480,80.5252
20.490,76.0016
20.500,71.5852
20.510,81.0915
20.520,68.0450
20.530,70.1833
20.540,69.3074
20.550,80.2182
20.560,76.1633
20.570,73.3470
20.580,79.4779
20.590,74.6818
20.600,76.3097
20.610,77.6223
20.620,72.5573
20.630,66.9227
20.640,73.1938
20.650,72.5361
20.660,72.0200
20.670,68.8641
20.680,65.7135
20.690,66.1703
20.700,68.4110
20.710,68.7250
20.720,73.3621
20.730,64.1763
20.740,65.2178
20.750,67.2194
20.760,63.6117
20.770,66.1945
20.780,63.9336
20.790,70.8403
20.800,71.9916
20.810,70.8376
20.820,68.2188
20.830,68.4523
20.840,62.1935
20.850,64.4488
20.860,73.2685
20.870,69.8768
20.880,69.6399
20.890,64.0846
20.900,62.2629
20.910,60.6370
20.920,72.2702
20.930,71.2122
20.940,64.1798
20.950,69.0163
20.960,69.3541
20.970,61.2264
20.980,68.5553
20.990,60.5399
21.000,62.4580
21.010,70.7365
21.020,71.5552
21.030,62.9906
21.040,69.0334
21.050,71.6655
21.060,68.4170
21.070,66.5050
21.080,71.4480
21.090,63.0580
21.100,66.4339
21.110,59.8862
21.120,67.3070
21.130,71.2071
21.140,61.0987
21.150,58.9986
21.160,60.6729
21.170,70.9746
21.180,61.8342
21.190,67.5179
21.200,67.4681
21.210,72.4987
21.220,70.3004
21.230,61.6929
21.240,66.1998
21.250,71.2933
21.260,65.4790
21.270,65.9902
21.280,71.7264
21.290,61.5164
21.300,60.8517
21.310,62.8845
21.320,66.5303
21.330,64.3331
21.340,62.8126
21.350,64.9925
21.360,65.1280
21.370,67.8932
21.380,74.7458
21.390,69.7272
21.400,69.0202
21.410,70.5198
21.420,64.0368
21.430,64.8099
21.440,68.7060
21.450,74.2033
21.460,70.2998
21.470,70.1866
21.480,76.5608
21.490,70.5701
21.500,74.4195
21.510,66.7953
21.520,71.9479
21.530,77.6874
21.540,66.5608
21.550,68.3265
21.560,73.3728
21.570,76.3449
21.580,67.9473
21.590,69.3481
21.600,74.6390
21.610,80.7921
21.620,69.5911
21.630,69.1385
21.640,79.2459
21.650,73.6109
21.660,73.0072
21.670,73.9424
21.680,81.8009
21.690,72.7641
21.700,79.5096
21.710,81.1276
21.720,69.7523
21.730,75.5588
21.740,69.3690
21.750,75.4784
21.760,72.8162
21.770,69.1979
21.780,76.2049
21.790,76.3879
21.800,75.5481
21.810,76.7706
21.820,82.1780
21.830,72.3642
21.840,77.5484
21.850,68.8963
21.860,72.5287
21.870,76.7145
21.880,74.0013
21.890,77.2611
21.900,71.1756
21.910,75.2604
21.920,70.0448
21.930,80.1411
21.940,80.8145
21.950,73.3969
21.960,79.3609
21.970,79.4786
21.980,75.2046
21.990,77.6221
22.000,77.8719
22.010,74.9489
22.020,69.8460
22.030,75.6159
22.040,70.4953
22.050,79.0323
22.060,67.5784
22.070,68.1920
22.080,77.2867
22.090,72.3917
22.100,67.7234
22.110,70.7472
22.120,65.1841
22.130,68.5676
22.140,65.5236
22.150,74.0078
22.160,64.5103
22.170,67.3054
22.180,66.3602
22.190,69.9634
22.200,65.9949
22.210,70.5045
22.220,66.1514
22.230,63.9224
22.240,63.5963
22.250,74.4413
22.260,66.7493
22.270,65.3663
22.280,62.8047
22.290,64.2853
22.300,68.1295
22.310,72.4973
22.320,66.9115
22.330,67.4677
22.340,69.4889
22.350,68.3607
22.360,67.4863
22.370,66.1854
22.380,60.2704
22.390,69.2184
22.400,70.4939
22.410,61.1795
22.420,70.2656
22.430,60.8558
22.440,70.5775
22.450,69.1895
22.460,62.5301
22.470,71.0902
22.480,66.8278
22.490,66.0555
22.500,60.9738
22.510,67.5005
22.520,65.7773
22.530,59.8714
22.540,62.8905
22.550,60.5082
22.560,58.9122
22.570,59.3357
22.580,61.6697
22.590,60.9345
22.600,62.7442
22.610,70.5591
22.620,69.9515
22.630,66.3985
22.640,68.3168
22.650,61.0006
22.660,61.4206
22.670,66.7247
22.680,69.0289
22.690,62.4948
22.700,63.6166
22.710,71.7378
22.720,62.9333
22.730,72.7323
22.740,61.7643
22.750,62.3673
22.760,65.7540
22.770,70.5811
22.780,73.1515
22.790,65.3951
22.800,63.8125
22.810,75.4826
22.820,66.2278
22.830,73.5314
22.840,73.6035
22.850,73.4069
22.860,68.7113
22.870,75.0531
22.880,66.8229
22.890,70.8062
22.900,72.4533
22.910,77.6085
22.920,77.5869
22.930,72.6450
22.940,78.6597
22.950,73.7471
22.960,67.2971
22.970,70.2350
22.980,70.6567
22.990,74.2128
23.000,74.5464
23.010,78.0898
23.020,76.4347
23.030,70.7642
23.040,76.9023
23.050,68.3688
23.060,76.4368
23.070,80.2380
23.080,73.2886
23.090,81.6377
23.100,75.8277
23.110,75.3142
23.120,81.8706
23.130,77.4955
23.140,75.4023
23.150,73.7241
23.160,77.9078
23.170,75.9877
23.180,73.7120
23.190,76.7212
23.200,76.8042
23.210,74.6387
23.220,75.2304
23.230,71.8267
23.240,71.7930
23.250,73.4549
23.260,76.5479
23.270,80.2804
23.280,77.6927
23.290,72.6152
23.300,79.4571
23.310,76.5220
23.320,69.5855
23.330,75.5204
23.340,79.4600
23.350,69.5497
23.360,73.1014
23.370,77.2273
23.380,76.6549
23.390,75.8124
23.400,80.2440
23.410,67.8412
23.420,78.7152
23.430,71.4378
23.440,69.1208
23.450,68.5087
23.460,77.5967
23.470,71.8428
23.480,78.0314
23.490,67.9222
23.500,75.8351
23.510,78.3434
23.520,68.6031
23.530,73.5209
23.540,68.1353
23.550,75.7499
23.560,64.4021
23.570,68.3627
23.580,74.3818
23.590,70.2042
23.600,72.8295
23.610,63.3992
23.620,69.2861
23.630,67.5802
23.640,67.4578
23.650,64.5119
23.660,71.6396
23.670,64.8351
23.680,67.0964
23.690,72.2764
23.700,62.3339
23.710,71.3786
23.720,62.6382
23.730,65.4557
23.740,70.8955
23.750,60.5290
23.760,70.4805
23.770,71.5461
23.780,61.9437
23.790,70.5029
23.800,61.9718
23.810,64.8866
23.820,60.1447
23.830,64.0700
23.840,64.4668
23.850,60.9414
23.860,61.5781
23.870,70.3232
23.880,67.3953
23.890,64.8684
23.900,63.9964
23.910,61.8052
23.920,66.1692
23.930,61.7934
23.940,68.9764
23.950,71.0004
23.960,59.7382
23.970,67.0444
23.980,62.5737
23.990,71.2152
24.000,61.0574
24.010,65.9261
24.020,67.8961
24.030,66.3989
24.040,70.2198
24.050,65.8676
24.060,64.9746
24.070,70.3836
24.080,65.2192
24.090,72.8043
24.100,61.2686
24.110,67.4009
24.120,64.9822
24.130,68.9334
24.140,73.9510
24.150,62.6505
24.160,62.0807
24.170,63.0939
24.180,70.8597
24.190,64.1096
24.200,66.8086
24.210,69.6988
24.220,71.1210
24.230,63.4241
24.240,64.6874
24.250,76.2161
24.260,67.9090
24.270,65.4097
24.280,73.5975
24.290,64.6039
24.300,74.5027
24.310,77.9165
24.320,67.0184
24.330,68.2046
24.340,66.0943
24.350,72.9343
24.360,69.7361
24.370,69.2380
24.380,67.4357
24.390,77.2697
24.400,71.4938
24.410,72.6128
24.420,69.6808
24.430,72.0500
24.440,80.4197
24.450,80.3763
24.460,75.4869
24.470,80.4171
24.480,72.2789
24.490,73.3209
24.500,72.8356
24.510,76.7184
24.520,74.8992
24.530,75.5408
24.540,70.9764
24.550,81.2943
24.560,82.4617
24.570,80.8162
24.580,70.2548
24.590,73.2539
24.600,76.0573
24.610,81.6988
24.620,75.1750
24.630,78.7883
24.640,79.7546
24.650,80.9044
24.660,77.6792
24.670,71.7748
24.680,78.8544
24.690,82.2725
24.700,76.1278
24.710,81.5600
24.720,69.8158
24.730,73.9951
24.740,78.4857
24.750,71.6738
24.760,82.1705
24.770,81.5386
24.780,80.2026
24.790,71.0508
24.800,69.5750
24.810,68.9718
24.820,68.4198
24.830,70.9319
24.840,79.9967
24.850,74.4006
24.860,79.6195
24.870,73.4910
24.880,68.8913
24.890,74.2527
24.900,74.7686
24.910,76.4599
24.920,75.9861
24.930,66.9523
24.940,69.3642
24.950,67.8461
24.960,65.4234
24.970,76.0936
24.980,74.7520
24.990,68.1753
25.000,74.9748
25.010,74.5726
25.020,70.1562
25.030,70.0486
25.040,70.0906
25.050,72.0013
25.060,69.7892
25.070,66.8720
25.080,73.1765
25.090,75.3733
25.100,67.0961
25.110,73.2068
25.120,65.3300
25.130,65.5483
25.140,68.3373
25.150,66.1895
25.160,71.1331
25.170,63.7132
25.180,66.9327
25.190,62.7556
25.200,68.3340
25.210,70.5809
25.220,68.7576
25.230,71.0377
25.240,64.0202
25.250,59.7271
25.260,72.3734
25.270,68.9129
25.280,67.1280
25.290,68.8373
25.300,70.3617
25.310,65.4086
25.320,62.7019
25.330,68.3959
25.340,70.0317
25.350,68.4831
25.360,68.9520
25.370,72.0175
25.380,60.6151
25.390,66.7305
25.400,70.4168
25.410,63.4420
25.420,64.6279
25.430,65.9223
25.440,60.5674
25.450,72.3136
25.460,69.6177
25.470,69.7888
25.480,69.8731
25.490,72.5119
25.500,65.1535
25.510,65.8378
25.520,72.1185
25.530,66.7303
25.540,64.8771
25.550,70.9410
25.560,64.0730
25.570,65.4657
25.580,63.3583
25.590,72.9129
25.600,63.8087
25.610,70.7844
25.620,69.1258
25.630,73.0860
25.640,65.2695
25.650,69.1334
25.660,71.9341
25.670,70.9525
25.680,63.7578
25.690,67.6882
25.700,65.6118
25.710,74.1392
25.720,74.9723
25.730,73.7529
25.740,74.8292
25.750,76.3626
25.760,69.9546
25.770,71.9413
25.780,74.5649
25.790,72.3517
25.800,75.5705
25.810,71.7881
25.820,74.5844
25.830,67.6905
25.840,72.4086
25.850,68.5614
25.860,79.5851
25.870,72.0428
25.880,72.1538
25.890,73.7744
25.900,79.7617
25.910,79.1447
25.920,69.7661
25.930,74.9391
25.940,76.4901
25.950,80.9464
25.960,69.5320
25.970,74.5642
25.980,77.1644
25.990,69.9530
26.000,70.1637
26.010,71.4310
26.020,77.2706
26.030,72.2229
26.040,75.2594
26.050,81.5205
26.060,81.8807
26.070,78.6426
26.080,82.5590
26.090,77.2066
26.100,70.2059
26.110,76.2520
26.120,81.6546
26.130,71.4414
26.140,75.5285
26.150,74.0767
26.160,82.0859
26.170,78.4209
26.180,80.7348
26.190,71.0292
26.200,82.3250
26.210,76.7959
26.220,79.6251
26.230,76.7929
26.240,80.5799
26.250,77.4139
26.260,74.7158
26.270,75.4965
26.280,70.7050
26.290,78.4749
26.300,69.9498
26.310,78.8855
26.320,79.0592
26.330,71.1607
26.340,76.3032
26.350,74.0006
26.360,66.1762
26.370,74.5814
26.380,77.7852
26.390,74.3290
26.400,70.6992
26.410,66.7348
26.420,73.7339
26.430,74.3867
26.440,73.8291
26.450,65.7301
26.460,67.0668
26.470,76.5838
26.480,66.5890
26.490,74.9177
26.500,71.7824
26.510,75.2607
26.520,73.7842
26.530,63.1997
26.540,62.0490
26.550,73.5942
26.560,65.6949
26.570,67.4328
26.580,69.0921
26.590,63.8388
26.600,73.6579
26.610,70.9995
26.620,70.3455
26.630,71.1676
26.640,69.3258
26.650,60.4378
26.660,69.2445
26.670,72.4022
26.680,65.6475
26.690,63.4549
26.700,66.3583
26.710,66.8988
26.720,69.2839
26.730,66.2083
26.740,61.2541
26.750,60.2815
26.760,63.0349
26.770,67.3708
26.780,61.8210
26.790,59.2911
26.800,69.2295
26.810,70.8508
26.820,63.6349
26.830,70.0069
26.840,61.7452
26.850,68.6238
26.860,72.2791
26.870,66.5418
26.880,72.4722
26.890,69.5349
26.900,60.0756
26.910,70.2991
26.920,62.9980
26.930,71.6270
26.940,73.6677
26.950,63.7115
26.960,65.6879
26.970,70.8079
26.980,63.2279
26.990,64.3714
27.000,73.4286
27.010,67.1644
27.020,72.0628
27.030,63.5916
27.040,70.2234
27.050,73.4483
27.060,72.6582
27.070,65.5991
27.080,72.4513
27.090,66.6133
27.100,67.0193
27.110,69.3552
27.120,72.8530
27.130,74.4513
27.140,72.3803
27.150,73.7005
27.160,68.2581
27.170,74.9754
27.180,73.9684
27.190,76.9534
27.200,77.2971
27.210,73.8777
27.220,77.9721
27.230,77.9271
27.240,78.5863
27.250,77.2581
27.260,68.3300
27.270,80.4158
27.280,70.5700
27.290,73.1246
27.300,73.3546
27.310,74.3906
27.320,71.1717
27.330,77.4346
27.340,80.0185
27.350,81.0900
27.360,80.2275
27.370,80.1523
27.380,77.4028
27.390,72.4202
27.400,71.5730
27.410,79.9190
27.420,79.7155
27.430,78.8400
27.440,70.7488
27.450,80.1111
27.460,81.8403
27.470,81.8211
27.480,74.8128
27.490,75.4460
27.500,79.0990
27.510,81.9793
27.520,72.8878
27.530,75.3264
27.540,75.3360
27.550,77.0711
27.560,75.8019
27.570,77.1875
27.580,74.8439
27.590,73.5284
27.600,77.9984
27.610,72.5836
27.620,77.8680
27.630,79.1851
27.640,79.3115
27.650,79.5774
27.660,75.2377
27.670,74.8761
27.680,72.7784
27.690,71.6973
27.700,80.0683
27.710,70.5352
27.720,75.4937
27.730,69.7255
27.740,76.0137
27.750,67.2321
27.760,75.6711
27.770,75.4909
27.780,72.4468
27.790,76.7548
27.800,66.5721
27.810,72.6723
27.820,78.1850
27.830,71.6895
27.840,68.6899
27.850,72.1754
27.860,76.6025
27.870,72.2296
27.880,77.1411
27.890,76.2790
27.900,72.6369
27.910,73.1728
27.920,69.0648
27.930,74.4138
27.940,70.1483
27.950,63.2254
27.960,63.8040
27.970,70.0071
27.980,72.8729
27.990,74.7654
28.000,66.5524
28.010,68.3805
28.020,71.1614
28.030,73.2270
28.040,64.6623
28.050,62.0295
28.060,63.7216
28.070,67.6146
28.080,70.7965
28.090,62.0278
28.100,62.2850
28.110,71.5482
28.120,66.9988
28.130,61.0251
28.140,72.0745
28.150,72.7906
28.160,61.6613
28.170,65.7342
28.180,60.4804
28.190,62.9835
28.200,66.2651
28.210,67.1197
28.220,65.5182
28.230,69.1593
28.240,64.6014
28.250,70.9802
28.260,59.7918
28.270,65.4178
28.280,63.4561
28.290,71.4206
28.300,72.1221
28.310,70.0930
28.320,64.7443
28.330,67.3673
28.340,63.3295
28.350,65.3648
28.360,70.8006
28.370,71.6796
28.380,61.2081
28.390,72.0320
28.400,73.7428
28.410,64.5924
28.420,66.0868
28.430,69.2553
28.440,64.3253
28.450,69.8933
28.460,74.9636
28.470,73.5716
28.480,65.5848
28.490,65.9804
28.500,64.8193
28.510,75.1876
28.520,71.8814
28.530,76.5655
28.540,65.9597
28.550,69.6110
28.560,76.0585
28.570,77.8439
28.580,73.9459
28.590,69.1751
28.600,69.0019
28.610,71.7115
28.620,77.5306
28.630,68.6954
28.640,66.9229
28.650,70.0389
28.660,77.1960
28.670,67.5872
28.680,77.4912
28.690,68.3712
28.700,74.7283
28.710,68.3673
28.720,76.3966
28.730,78.3633
28.740,78.1827
28.750,75.2011
28.760,78.0198
28.770,78.2011
28.780,69.8399
28.790,72.9671
28.800,79.3393
28.810,72.7048
28.820,70.0571
28.830,82.0613
28.840,74.0284
28.850,72.6463
28.860,79.1077
28.870,71.2483
28.880,71.2502
28.890,78.4873
28.900,73.4933
28.910,72.0159
28.920,77.6591
28.930,77.0966
28.940,71.1790
28.950,82.3141
28.960,72.1690
28.970,75.8159
28.980,82.0536
28.990,79.9891
29.000,80.1876
29.010,71.5007
29.020,80.9332
29.030,70.9326
29.040,75.2215
29.050,72.5208
29.060,81.9800
29.070,77.7589
29.080,76.7410
29.090,73.3364
29.100,79.7723
29.110,73.5162
29.120,69.0502
29.130,68.8230
29.140,68.6772
29.150,81.2571
29.160,73.9673
29.170,71.2360
29.180,77.1964
29.190,75.1604
29.200,76.8887
29.210,79.4331
29.220,75.1886
29.230,76.1528
29.240,66.5907
29.250,75.5344
29.260,71.6669
29.270,65.3634
29.280,69.9816
29.290,74.0134
29.300,73.4125
29.310,67.8132
29.320,73.5515
29.330,76.7558
29.340,64.6900
29.350,73.8635
29.360,73.7793
29.370,72.5225
29.380,72.0520
29.390,72.5168
29.400,64.6971
29.410,64.5653
29.420,75.3176
29.430,62.4252
29.440,73.3625
29.450,68.6779
29.460,69.0409
29.470,66.0121
29.480,69.9450
29.490,70.1712
29.500,72.9037
29.510,62.2244
29.520,66.2876
29.530,62.1244
29.540,61.5125
29.550,65.5628
29.560,61.6647
29.570,61.5142
29.580,65.4375
29.590,68.8754
29.600,64.8794
29.610,62.2442
29.620,65.9697
29.630,66.9332
29.640,62.6919
29.650,62.4804
29.660,67.7627
29.670,68.5013
29.680,60.6315
29.690,64.1594
29.700,68.0865
29.710,61.3976
29.720,67.8228
29.730,60.4229
29.740,65.5584
29.750,66.5936
29.760,70.9238
29.770,69.9328
29.780,73.6606
29.790,66.0952
29.800,71.7841
29.810,63.1272
29.820,71.0108
29.830,72.4326
29.840,69.2627
29.850,67.2591
29.860,75.0408
29.870,70.4384
29.880,75.6705
29.890,66.4645
29.900,69.7520
29.910,67.6048
29.920,65.7057
29.930,76.2817
29.940,70.5524
29.950,64.3885
29.960,75.2427
29.970,66.7494
29.980,73.8155
29.990,73.3692
30.000,74.5911
30.010,74.7103
30.020,74.7484
30.030,76.7894
30.040,75.4066
30.050,79.1527
30.060,72.7657
30.070,77.7251
30.080,83.8864
30.090,76.1501
30.100,85.1480
30.110,80.1743
30.120,85.2273
30.130,91.0811
30.140,86.1560
30.150,89.7379
30.160,90.1242
30.170,87.3839
30.180,91.1828
30.190,91.0999
30.200,99.9950
30.210,89.4455
30.220,91.3335
30.230,98.7130
30.240,102.6833
30.250,103.9150
30.260,95.0736
30.270,104.7921
30.280,96.2495
30.290,109.2619
30.300,101.3214
30.310,101.0668
30.320,99.8738
30.330,114.0239
30.340,111.9683
30.350,106.6975
30.360,110.8631
30.370,114.0099
30.380,111.4278
30.390,109.5128
30.400,110.3047
30.410,121.5847
30.420,116.8209
30.430,121.4915
30.440,114.5012
30.450,116.2282
30.460,121.5492
30.470,120.0501
30.480,124.4509
30.490,130.6926
30.500,123.2913
30.510,122.3296
30.520,133.3749
30.530,135.1468
30.540,130.6226
30.550,134.9402
30.560,128.8617
30.570,131.5151
30.580,136.3265
30.590,136.4585
30.600,136.4216
30.610,131.5020
30.620,133.6920
30.630,145.4812
30.640,139.3801
30.650,139.6197
30.660,145.1600
30.670,144.6137
30.680,140.8027
30.690,151.8637
30.700,141.8139
30.710,151.3297
30.720,154.4121
30.730,155.4013
30.740,151.8583
30.750,152.7467
30.760,155.7568
30.770,158.1183
30.780,151.2195
30.790,162.3651
30.800,160.6183
30.810,156.0862
30.820,158.7110
30.830,160.9471
30.840,158.9179
30.850,166.1168
30.860,170.1911
30.870,171.6149
30.880,162.8500
30.890,166.6617
30.900,169.5112
30.910,169.2211
30.920,177.2058
30.930,168.9112
30.940,175.2946
30.950,171.3476
30.960,175.7335
30.970,170.1310
30.980,177.6653
30.990,183.7637
31.000,181.7939
31.010,183.2309
31.020,179.8954
31.030,185.8474
31.040,183.9269
31.050,177.5773
31.060,179.1546
31.070,184.2114
31.080,174.3832
31.090,176.3118
31.100,173.7090
31.110,177.0646
31.120,177.6988
31.130,175.7870
31.140,180.1507
31.150,176.1989
31.160,173.7339
31.170,177.1320
31.180,174.4829
31.190,175.2677
31.200,183.4311
31.210,176.8818
31.220,185.3686
31.230,183.2211
31.240,185.8262
31.250,186.3685
31.260,174.5585
31.270,181.4126
31.280,175.7724
31.290,185.3355
31.300,183.1670
31.310,184.2806
31.320,176.8872
31.330,181.2694
31.340,185.5568
31.350,184.3019
31.360,180.0781
31.370,180.4609
31.380,185.0959
31.390,181.7730
31.400,173.3206
31.410,179.4744
31.420,177.1491
31.430,178.3579
31.440,182.6285
31.450,181.0307
31.460,176.5343
31.470,177.3244
31.480,183.3292
31.490,177.9452
31.500,183.3773
31.510,173.8436
31.520,179.9115
31.530,177.1837
31.540,174.4079
31.550,182.5008
31.560,173.9926
31.570,186.4158
31.580,183.7676
31.590,186.1551
31.600,174.7640
31.610,184.9607
31.620,185.2710
31.630,180.8715
31.640,183.8997
31.650,177.5437
31.660,177.7736
31.670,173.3670
31.680,176.2452
31.690,173.5487
31.700,182.5857
31.710,175.9808
31.720,181.4755
31.730,175.8780
31.740,179.4568
31.750,175.3173
31.760,181.9911
31.770,182.2783
31.780,176.3932
31.790,185.5045
31.800,176.7251
31.810,182.0556
31.820,176.5623
31.830,175.7462
31.840,178.8423
31.850,176.4451
31.860,179.4522
31.870,177.2801
31.880,176.0728
31.890,179.2068
31.900,179.8224
31.910,176.5042
31.920,185.7245
31.930,178.9931
31.940,183.5983
31.950,179.3432
31.960,186.1024
31.970,182.2550
31.980,182.9181
31.990,184.0233
32.000,76.2487
32.010,75.2117
32.020,73.6850
32.030,78.6916
32.040,79.4999
32.050,67.9860
32.060,67.4427
32.070,67.8113
32.080,67.8173
32.090,68.9144
32.100,70.1718
32.110,75.8595
32.120,73.4702
32.130,71.8488
32.140,76.3310
32.150,73.2700
32.160,68.2167
32.170,73.6020
32.180,71.7649
32.190,72.8194
32.200,70.5139
32.210,64.9197
32.220,69.1290
32.230,65.6946
32.240,73.1849
32.250,66.0626
32.260,69.7544
32.270,73.4397
32.280,73.4998
32.290,66.6193
32.300,66.3783
32.310,67.8732
32.320,62.9312
32.330,72.1333
32.340,68.0996
32.350,73.7870
32.360,65.9135
32.370,70.4343
32.380,72.0156
32.390,65.8188
32.400,71.9276
32.410,67.8998
32.420,68.1811
32.430,72.3437
32.440,64.8812
32.450,67.7137
32.460,66.7911
32.470,71.4838
32.480,62.6355
32.490,69.5611
32.500,61.7292
32.510,65.7526
32.520,70.3686
32.530,67.5837
32.540,67.0479
32.550,71.8321
32.560,69.5938
32.570,71.7671
32.580,64.5898
32.590,61.4488
32.600,70.4790
32.610,63.7854
32.620,72.0619
32.630,71.8816
32.640,74.0355
32.650,64.5724
32.660,69.9734
32.670,65.1078
32.680,66.3616
32.690,68.7277
32.700,73.2964
32.710,72.9381
32.720,66.4981
32.730,67.9647
32.740,64.0961
32.750,70.9785
32.760,67.8971
32.770,63.9626
32.780,73.1651
32.790,73.8451
32.800,68.9090
32.810,77.2181
32.820,71.5435
32.830,65.1466
32.840,67.6958
32.850,70.5628
32.860,73.0964
32.870,68.7214
32.880,78.0803
32.890,77.1934
32.900,74.3522
32.910,75.5055
32.920,68.9474
32.930,80.1813
32.940,72.2591
32.950,68.4081
32.960,72.4394
32.970,75.2760
32.980,68.2950
32.990,74.0029
33.000,69.4253
33.010,73.8824
33.020,80.9820
33.030,70.8019
33.040,79.6431
33.050,76.6479
33.060,77.0534
33.070,74.7701
33.080,70.7929
33.090,72.7159
33.100,76.2794
33.110,73.6307
33.120,73.9201
33.130,77.3681
33.140,78.6341
33.150,81.6067
33.160,72.3503
33.170,71.2936
33.180,77.1768
33.190,81.0961
33.200,75.8939
33.210,75.3880
33.220,80.9606
33.230,82.1576
33.240,80.1649
33.250,81.0696
33.260,84.0057
33.270,72.0271
33.280,78.9840
33.290,72.1695
33.300,71.5218
33.310,80.8345
33.320,82.8702
33.330,75.1521
33.340,81.7065
33.350,72.6750
33.360,77.1726
33.370,80.7690
33.380,73.2014
33.390,77.6034
33.400,80.8291
33.410,69.4666
33.420,75.9856
33.430,68.9966
33.440,77.0941
33.450,70.1201
33.460,68.6433
33.470,80.4253
33.480,80.7195
33.490,69.9060
33.500,71.0780
33.510,78.8913
33.520,78.1112
33.530,70.2255
33.540,78.5021
33.550,70.1496
33.560,74.8473
33.570,65.9269
33.580,66.6200
33.590,74.9426
33.600,77.6259
33.610,70.0633
33.620,64.7360
33.630,68.7719
33.640,72.1453
33.650,75.2769
33.660,68.1914
33.670,70.3945
33.680,73.1716
33.690,76.2360
33.700,67.8051
33.710,71.6280
33.720,63.9804
33.730,64.8404
33.740,67.8801
33.750,70.9865
33.760,70.3478
33.770,63.8233
33.780,68.6014
33.790,72.3304
33.800,69.3184
33.810,69.4211
33.820,69.9434
33.830,68.7183
33.840,67.7112
33.850,68.2980
33.860,62.1649
33.870,64.2882
33.880,68.3568
33.890,70.8416
33.900,66.2541
33.910,65.4576
33.920,72.5048
33.930,67.3202
33.940,69.7364
33.950,63.5535
33.960,65.5445
33.970,67.8541
33.980,69.9076
33.990,64.8745
34.000,68.2664
34.010,69.8915
34.020,65.4713
34.030,72.9566
34.040,70.6981
34.050,62.7173
34.060,69.4682
34.070,67.9156
34.080,68.7575
34.090,70.8595
34.100,73.7181
34.110,64.1226
34.120,67.8679
34.130,64.4211
34.140,64.7640
34.150,72.8436
34.160,75.0596
34.170,64.9833
34.180,65.1361
34.190,67.4250
34.200,73.4970
34.210,68.0982
34.220,70.5890
34.230,70.3852
34.240,69.8673
34.250,69.4001
34.260,72.2635
34.270,73.2340
34.280,75.3302
34.290,78.8411
34.300,74.1189
34.310,71.2039
34.320,78.3029
34.330,77.4926
34.340,74.2632
34.350,69.6680
34.360,78.8806
34.370,70.4949
34.380,77.7758
34.390,76.9075
34.400,73.3993
34.410,71.8908
34.420,81.3243
34.430,80.2996
34.440,71.0092
34.450,73.9285
34.460,79.7630
34.470,72.3552
34.480,75.6915
34.490,79.4766
34.500,76.1581
34.510,71.8714
34.520,75.2806
34.530,72.6467
34.540,81.3485
34.550,71.9759
34.560,77.4029
34.570,76.6694
34.580,81.6614
34.590,76.6630
34.600,73.7557
34.610,73.9420
34.620,72.2796
34.630,74.3340
34.640,78.3421
34.650,74.6306
34.660,74.4227
34.670,84.0954
34.680,80.4765
34.690,78.8182
34.700,84.1096
34.710,79.8265
34.720,80.1778
34.730,77.0756
34.740,83.0603
34.750,81.4079
34.760,77.6596
34.770,80.0502
34.780,78.4698
34.790,80.0497
34.800,73.7641
34.810,76.7785
34.820,71.5988
34.830,71.8757
34.840,77.2265
34.850,74.6960
34.860,75.6567
34.870,70.0463
34.880,69.4556
34.890,75.3841
34.900,76.4701
34.910,70.3503
34.920,78.3674
34.930,77.7607
34.940,75.0128
34.950,78.9368
34.960,69.8128
34.970,73.0423
34.980,73.9990
34.990,75.0832
35.000,72.8615
35.010,73.9640
35.020,74.9348
35.030,69.5191
35.040,77.1949
35.050,76.8525
35.060,75.4537
35.070,71.3852
35.080,70.5523
35.090,65.7486
35.100,70.0224
35.110,68.2592
35.120,76.4421
35.130,72.1546
35.140,66.8500
35.150,72.2696
35.160,67.0945
35.170,72.9694
35.180,70.0072
35.190,71.3953
35.200,68.7053
35.210,73.7033
35.220,73.6723
35.230,66.5558
35.240,62.8434
35.250,71.3390
35.260,68.5917
35.270,66.7222
35.280,71.3033
35.290,73.9442
35.300,62.9637
35.310,64.3771
35.320,71.5864
35.330,72.2065
35.340,70.1092
35.350,64.8566
35.360,72.0602
35.370,63.2409
35.380,70.9673
35.390,73.0862
35.400,72.4893
35.410,73.8711
35.420,69.4405
35.430,67.8647
35.440,65.9243
35.450,69.6719
35.460,70.8817
35.470,63.2565
35.480,67.4049
35.490,61.9030
35.500,74.7729
35.510,73.7863
35.520,71.2652
35.530,72.7329
35.540,75.1040
35.550,63.5457
35.560,66.5362
35.570,75.8017
35.580,75.4971
35.590,67.5414
35.600,66.2154
35.610,66.3803
35.620,71.0273
35.630,65.8952
35.640,68.3173
35.650,69.8475
35.660,74.8088
35.670,70.9865
35.680,72.6424
35.690,66.3019
35.700,75.4760
35.710,66.6903
35.720,78.4321
35.730,69.1804
35.740,76.0576
35.750,77.2301
35.760,73.0056
35.770,78.0473
35.780,76.6096
35.790,80.9959
35.800,78.7339
35.810,77.9438
35.820,74.0793
35.830,80.7245
35.840,81.6354
35.850,77.9398
35.860,77.9129
35.870,80.6104
35.880,72.8050
35.890,80.3750
35.900,74.1377
35.910,81.1134
35.920,80.5050
35.930,77.7575
35.940,80.7097
35.950,80.9842
35.960,75.0092
35.970,80.8137
35.980,81.3204
35.990,83.3738
36.000,72.0726
36.010,80.3759
36.020,71.2922
36.030,77.5454
36.040,72.9347
36.050,83.0762
36.060,72.0207
36.070,77.7707
36.080,82.8273
36.090,82.1534
36.100,73.0745
36.110,74.4883
36.120,79.6674
36.130,75.2147
36.140,80.8300
36.150,73.8831
36.160,76.0623
36.170,81.1746
36.180,77.6474
36.190,75.2843
36.200,80.7942
36.210,71.8304
36.220,70.9740
36.230,81.2856
36.240,73.3046
36.250,72.7158
36.260,77.5114
36.270,73.2654
36.280,74.9972
36.290,76.7968
36.300,69.6358
36.310,77.0473
36.320,80.7283
36.330,78.0106
36.340,73.5227
36.350,73.1723
36.360,81.0349
36.370,75.3461
36.380,73.9751
36.390,68.9228
36.400,72.2686
36.410,67.3276
36.420,73.2018
36.430,66.9123
36.440,75.3094
36.450,76.4001
36.460,74.7692
36.470,70.4195
36.480,69.1614
36.490,71.3094
36.500,68.3072
36.510,75.7877
36.520,64.7296
36.530,69.2383
36.540,67.7848
36.550,63.6733
36.560,66.2839
36.570,73.4194
36.580,71.8492
36.590,71.9961
36.600,73.9504
36.610,63.8292
36.620,62.4969
36.630,72.3925
36.640,62.5471
36.650,70.7391
36.660,66.0045
36.670,74.3579
36.680,62.2818
36.690,65.6406
36.700,63.0632
36.710,68.4233
36.720,65.7143
36.730,63.6240
36.740,65.6382
36.750,73.4149
36.760,66.0381
36.770,64.5878
36.780,66.6056
36.790,64.0256
36.800,62.3487
36.810,72.7819
36.820,73.6829
36.830,65.9258
36.840,65.8048
36.850,64.1296
36.860,64.1058
36.870,69.2696
36.880,67.1609
36.890,69.1367
36.900,63.9535
36.910,69.8866
36.920,67.6173
36.930,67.8399
36.940,64.4672
36.950,73.6992
36.960,67.5467
36.970,72.6228
36.980,71.8954
36.990,74.5557
37.000,64.1129
37.010,64.3092
37.020,71.2784
37.030,73.8475
37.040,72.0544
37.050,64.0892
37.060,67.3315
37.070,74.8564
37.080,67.5212
37.090,70.1976
37.100,71.1080
37.110,74.9077
37.120,74.5376
37.130,70.4792
37.140,78.4182
37.150,78.2776
37.160,72.2978
37.170,71.1589
37.180,73.3256
37.190,76.7413
37.200,75.8535
37.210,77.1581
37.220,68.9187
37.230,71.4170
37.240,76.9953
37.250,76.4854
37.260,74.9563
37.270,80.3211
37.280,69.6599
37.290,75.5470
37.300,79.0914
37.310,77.1429
37.320,70.9762
37.330,76.3202
37.340,78.5714
37.350,73.9219
37.360,73.7324
37.370,78.5348
37.380,81.8414
37.390,75.8411
37.400,73.2149
37.410,72.7955
37.420,75.1113
37.430,84.7043
37.440,75.3507
37.450,75.5944
37.460,76.1864
37.470,74.9110
37.480,73.0676
37.490,80.9613
37.500,80.6920
37.510,73.6103
37.520,84.1018
37.530,81.1493
37.540,76.3265
37.550,71.6272
37.560,77.0898
37.570,77.8878
37.580,75.9806
37.590,83.0951
37.600,79.0352
37.610,83.9747
37.620,75.0719
37.630,73.9511
37.640,74.8015
37.650,71.2684
37.660,77.5400
37.670,80.4255
37.680,75.0104
37.690,81.2881
37.700,74.3478
37.710,76.8615
37.720,76.4007
37.730,76.9979
37.740,72.0762
37.750,78.0063
37.760,73.9502
37.770,74.2533
37.780,74.4326
37.790,72.6931
37.800,72.6300
37.810,69.6299
37.820,67.8164
37.830,70.1705
37.840,77.8037
37.850,69.0788
37.860,69.6575
37.870,71.9408
37.880,77.2493
37.890,77.2895
37.900,68.4401
37.910,70.0670
37.920,78.0914
37.930,75.9572
37.940,64.4648
37.950,71.7022
37.960,67.2971
37.970,68.9738
37.980,75.6464
37.990,73.4655
38.000,67.9659
38.010,63.3980
38.020,70.8827
38.030,66.1903
38.040,63.2415
38.050,66.1526
38.060,63.2000
38.070,75.3858
38.080,67.8142
38.090,74.6941
38.100,63.2871
38.110,74.5100
38.120,62.1542
38.130,65.6479
38.140,72.9759
38.150,68.9770
38.160,64.4696
38.170,72.6465
38.180,68.1905
38.190,68.8719
38.200,62.7280
38.210,67.5130
38.220,69.3821
38.230,72.5470
38.240,68.8838
38.250,63.3836
38.260,63.2332
38.270,71.1518
38.280,70.1804
38.290,64.6899
38.300,71.6153
38.310,71.7537
38.320,67.8045
38.330,73.0368
38.340,69.5090
38.350,68.7010
38.360,64.6608
38.370,72.3494
38.380,66.5156
38.390,63.5702
38.400,75.8480
38.410,68.2784
38.420,69.0727
38.430,63.4290
38.440,72.2656
38.450,65.6755
38.460,66.5838
38.470,68.5443
38.480,67.5361
38.490,75.2355
38.500,76.3919
38.510,69.4785
38.520,67.7549
38.530,72.7389
38.540,77.6885
38.550,78.6635
38.560,78.0513
38.570,69.8370
38.580,72.0951
38.590,69.5520
38.600,73.5655
38.610,77.4079
38.620,71.2486
38.630,77.7435
38.640,81.1533
38.650,80.5461
38.660,78.7820
38.670,74.0155
38.680,81.0882
38.690,76.3655
38.700,73.5776
38.710,79.4103
38.720,78.1150
38.730,72.3766
38.740,70.9785
38.750,72.3836
38.760,83.3010
38.770,78.9582
38.780,79.6437
38.790,82.6528
38.800,78.5700
38.810,81.7299
38.820,76.5276
38.830,78.5497
38.840,74.9021
38.850,74.7380
38.860,79.9019
38.870,82.8630
38.880,75.5216
38.890,76.1207
38.900,78.8993
38.910,80.2622
38.920,80.1507
38.930,72.2815
38.940,77.2767
38.950,79.2618
38.960,78.9639
38.970,74.5197
38.980,77.8329
38.990,77.1897
39.000,80.0797
39.010,80.4530
39.020,82.6066
39.030,73.1206
39.040,77.3026
39.050,71.1577
39.060,74.7243
39.070,84.0288
39.080,81.8676
39.090,76.9718
39.100,72.5665
39.110,70.6737
39.120,80.3200
39.130,70.3385
39.140,73.4689
39.150,70.6077
39.160,79.4891
39.170,81.7002
39.180,77.1592
39.190,74.6832
39.200,73.5509
39.210,77.1131
39.220,78.8525
39.230,74.3319
39.240,75.3186
39.250,73.9356
39.260,79.8783
39.270,69.5371
39.280,75.8135
39.290,67.0994
39.300,75.7390
39.310,70.6249
39.320,67.3120
39.330,73.1575
39.340,77.5876
39.350,74.9332
39.360,66.8965
39.370,65.4264
39.380,65.5450
39.390,71.7570
39.400,72.3579
39.410,66.9333
39.420,70.9785
39.430,66.4268
39.440,72.7315
39.450,75.8598
39.460,65.5328
39.470,64.5916
39.480,72.9717
39.490,65.1466
39.500,73.5454
39.510,69.1594
39.520,65.4903
39.530,63.3681
39.540,66.2522
39.550,72.8623
39.560,64.8342
39.570,63.1372
39.580,74.0561
39.590,67.9162
39.600,69.3064
39.610,64.5061
39.620,66.5386
39.630,73.0992
39.640,63.9133
39.650,72.4503
39.660,64.5732
39.670,74.3971
39.680,74.0900
39.690,66.0442
39.700,63.4776
39.710,64.9750
39.720,65.6972
39.730,62.4637
39.740,62.6569
39.750,73.6244
39.760,65.1518
39.770,72.8853
39.780,68.7499
39.790,73.5089
39.800,72.0452
39.810,72.2634
39.820,68.1714
39.830,68.0849
39.840,71.0746
39.850,71.2190
39.860,65.5306
39.870,74.1700
39.880,72.2898
39.890,71.8526
39.900,66.3593
39.910,69.6341
39.920,65.8922
39.930,68.3208
39.940,77.2558
39.950,68.7717
39.960,77.4799
39.970,66.3260
39.980,77.0455
39.990,76.2070
40.000,76.3783
40.010,72.3016
40.020,78.2624
40.030,74.9038
40.040,76.1635
40.050,79.5414
40.060,76.8255
40.070,79.2754
40.080,72.6622
40.090,78.1189
40.100,70.9958
40.110,70.3052
40.120,75.7834
40.130,70.1872
40.140,77.6183
40.150,70.9481
40.160,72.2970
40.170,83.5947
40.180,70.5781
40.190,75.5795
40.200,76.2801
40.210,74.1731
40.220,82.1357
40.230,74.0541
40.240,72.5685
40.250,74.4501
40.260,75.2080
40.270,77.1598
40.280,83.1765
40.290,72.4842
40.300,82.9827
40.310,80.3863
40.320,78.3649
40.330,73.6057
40.340,81.3179
40.350,77.2635
40.360,84.5964
40.370,72.5835
40.380,76.3018
40.390,79.9218
40.400,79.8897
40.410,78.2631
40.420,76.6858
40.430,84.4706
40.440,75.7296
40.450,72.4246
40.460,80.0802
40.470,79.6720
40.480,73.2318
40.490,72.2494
40.500,73.4601
40.510,75.5471
40.520,82.0038
40.530,73.6297
40.540,79.1814
40.550,81.8498
40.560,73.5615
40.570,73.4693
40.580,77.1553
40.590,80.3196
40.600,70.4304
40.610,69.7131
40.620,73.8984
40.630,78.7121
40.640,76.1089
40.650,71.9493
40.660,76.3090
40.670,78.8849
40.680,68.6938
40.690,71.6814
40.700,78.7997
40.710,67.5177
40.720,71.1165
40.730,78.7286
40.740,68.0012
40.750,79.1287
40.760,75.0246
40.770,72.5417
40.780,68.9966
40.790,65.9990
40.800,75.0991
40.810,76.0256
40.820,74.0583
40.830,67.4654
40.840,75.0127
40.850,75.4026
40.860,71.9932
40.870,65.5173
40.880,74.6824
40.890,76.2177
40.900,71.4928
40.910,68.8721
40.920,73.1017
40.930,67.8903
40.940,66.6449
40.950,65.6191
40.960,66.1949
40.970,70.1013
40.980,74.4871
40.990,74.0693
41.000,65.8326
41.010,62.3460
41.020,73.2256
41.030,67.1477
41.040,67.3333
41.050,70.8643
41.060,73.4813
41.070,68.3442
41.080,69.9539
41.090,63.5795
41.100,63.9491
41.110,65.7920
41.120,69.1379
41.130,67.6593
41.140,74.7100
41.150,64.4601
41.160,62.5934
41.170,67.3301
41.180,71.1340
41.190,67.4598
41.200,64.1976
41.210,68.4562
41.220,67.7228
41.230,66.7647
41.240,68.2966
41.250,69.1956
41.260,68.2552
41.270,70.9735
41.280,72.9403
41.290,75.2243
41.300,76.0935
41.310,71.8870
41.320,71.1779
41.330,72.3334
41.340,76.9443
41.350,68.6790
41.360,67.5564
41.370,68.8337
41.380,70.7438
41.390,67.0915
41.400,75.9262
41.410,75.5075
41.420,74.3769
41.430,74.8292
41.440,71.0809
41.450,76.0878
41.460,69.3640
41.470,74.6506
41.480,70.0469
41.490,72.7828
41.500,70.8871
41.510,78.5616
41.520,73.5616
41.530,75.7969
41.540,76.7019
41.550,80.2525
41.560,72.2661
41.570,79.5353
41.580,73.0710
41.590,78.6804
41.600,73.9494
41.610,74.9897
41.620,71.6422
41.630,81.7798
41.640,79.6959
41.650,76.3915
41.660,82.1814
41.670,83.6018
41.680,76.7341
41.690,78.1628
41.700,81.0804
41.710,83.0661
41.720,79.4333
41.730,82.3713
41.740,83.3208
41.750,77.5486
41.760,79.1348
41.770,82.4845
41.780,84.4343
41.790,74.8263
41.800,85.0125
41.810,82.5553
41.820,82.4948
41.830,74.4074
41.840,81.5171
41.850,80.4724
41.860,78.5946
41.870,78.0515
41.880,74.8263
41.890,77.0281
41.900,78.8224
41.910,80.8586
41.920,72.5502
41.930,72.2557
41.940,80.7145
41.950,80.0545
41.960,82.8258
41.970,78.4766
41.980,71.9369
41.990,79.5957
42.000,81.6587
42.010,72.8567
42.020,74.0041
42.030,74.7241
42.040,72.6854
42.050,80.4210
42.060,77.6461
42.070,75.5832
42.080,77.1965
42.090,69.5565
42.100,68.2672
42.110,76.9432
42.120,75.1852
42.130,72.1028
42.140,73.5562
42.150,79.4618
42.160,73.5971
42.170,76.4732
42.180,67.3550
42.190,68.5379
42.200,66.3906
42.210,73.9875
42.220,75.0466
42.230,65.0162
42.240,66.0255
42.250,73.0866
42.260,70.6374
42.270,71.1150
42.280,75.8573
42.290,68.8286
42.300,74.6155
42.310,76.6384
42.320,69.0600
42.330,65.6107
42.340,69.5605
42.350,66.0187
42.360,71.8460
42.370,63.7366
42.380,68.3772
42.390,73.0181
42.400,68.8161
42.410,63.7681
42.420,62.6688
42.430,70.7707
42.440,64.3041
42.450,74.2612
42.460,74.3672
42.470,63.4099
42.480,64.9933
42.490,70.4885
42.500,64.4915
42.510,73.8824
42.520,63.8051
42.530,61.8316
42.540,71.5465
42.550,62.2481
42.560,65.3271
42.570,70.5496
42.580,62.5351
42.590,63.0108
42.600,63.7822
42.610,72.2112
42.620,62.4997
42.630,75.1069
42.640,73.7519
42.650,63.2571
42.660,65.8359
42.670,76.4436
42.680,66.2451
42.690,76.0364
42.700,76.7766
42.710,66.8010
42.720,76.2196
42.730,68.3772
42.740,67.2349
42.750,69.8096
42.760,75.0090
42.770,75.2803
42.780,77.5787
42.790,68.4992
42.800,77.4232
42.810,78.3466
42.820,70.8078
42.830,76.6671
42.840,71.2781
42.850,72.7715
42.860,67.3814
42.870,69.5438
42.880,81.0090
42.890,73.3700
42.900,78.9863
42.910,76.5947
42.920,74.5971
42.930,73.1024
42.940,80.7602
42.950,82.4330
42.960,77.5280
42.970,83.0166
42.980,71.3058
42.990,72.2135
43.000,75.5150
43.010,81.3108
43.020,79.1390
43.030,83.4900
43.040,79.3772
43.050,72.6655
43.060,72.9229
43.070,71.6580
43.080,83.9578
43.090,72.4894
43.100,81.7951
43.110,73.3585
43.120,72.9442
43.130,83.6154
43.140,73.4010
43.150,81.5253
43.160,79.8920
43.170,78.1619
43.180,78.3482
43.190,79.2033
43.200,82.0359
43.210,80.4426
43.220,79.9425
43.230,73.1599
43.240,79.3867
43.250,81.3435
43.260,80.2402
43.270,77.4688
43.280,73.3879
43.290,83.8629
43.300,72.8525
43.310,82.5239
43.320,80.6234
43.330,78.4916
43.340,82.4800
43.350,79.3399
43.360,80.3932
43.370,77.5280
43.380,73.0476
43.390,72.2481
43.400,74.2271
43.410,71.5906
43.420,72.1554
43.430,78.6315
43.440,79.2127
43.450,71.9171
43.460,78.5261
43.470,75.0482
43.480,71.1537
43.490,81.6877
43.500,72.1823
43.510,69.8075
43.520,68.6371
43.530,73.9245
43.540,71.7939
43.550,78.6238
43.560,78.8667
43.570,67.4309
43.580,79.1377
43.590,79.5325
43.600,71.8670
43.610,67.4417
43.620,75.8226
43.630,77.4656
43.640,72.6208
43.650,77.8657
43.660,71.3106
43.670,77.3968
43.680,67.7815
43.690,69.3376
43.700,65.2428
43.710,75.0862
43.720,67.9779
43.730,72.5840
43.740,65.3644
43.750,67.4540
43.760,71.2254
43.770,67.4507
43.780,74.3089
43.790,66.3843
43.800,70.5810
43.810,66.8718
43.820,70.7906
43.830,72.0468
43.840,74.9860
43.850,70.9600
43.860,73.5493
43.870,70.9502
43.880,64.2649
43.890,64.4014
43.900,64.1034
43.910,62.8639
43.920,65.5730
43.930,66.7271
43.940,64.6885
43.950,68.2500
43.960,63.8788
43.970,72.6667
43.980,73.3658
43.990,63.9395
44.000,75.2138
44.010,67.6906
44.020,72.4349
44.030,65.3577
44.040,69.7494
44.050,63.1111
44.060,64.1926
44.070,70.3469
44.080,66.3207
44.090,75.5921
44.100,72.6811
44.110,65.9644
44.120,64.4350
44.130,74.6015
44.140,69.4893
44.150,73.5509
44.160,73.8575
44.170,65.4310
44.180,76.5593
44.190,66.5152
44.200,72.3042
44.210,66.7409
44.220,68.1003
44.230,69.5331
44.240,73.7020
44.250,67.1965
44.260,69.6000
44.270,76.4240
44.280,72.5492
44.290,68.0246
44.300,80.2961
44.310,81.0807
44.320,73.2167
44.330,78.9491
44.340,73.0947
44.350,72.5838
44.360,69.3192
44.370,69.5847
44.380,77.9570
44.390,81.8987
44.400,80.0699
44.410,70.4511
44.420,79.2919
44.430,81.4293
44.440,75.6534
44.450,74.4301
44.460,79.1626
44.470,79.7198
44.480,77.8356
44.490,78.3685
44.500,82.5861
44.510,85.0084
44.520,77.9892
44.530,81.2706
44.540,83.4835
44.550,83.0302
44.560,75.1961
44.570,73.6653
44.580,84.4298
44.590,77.4459
44.600,76.5219
44.610,85.7229
44.620,85.7482
44.630,78.6212
44.640,83.4287
44.650,83.9557
44.660,84.4053
44.670,78.1295
44.680,76.4025
44.690,73.6551
44.700,85.0240
44.710,77.7163
44.720,76.8290
44.730,72.7967
44.740,84.6994
44.750,81.7621
44.760,74.3229
44.770,77.5963
44.780,83.0259
44.790,75.0269
44.800,82.4928
44.810,73.9126
44.820,80.0045
44.830,73.1747
44.840,78.9478
44.850,78.7701
44.860,75.7144
44.870,82.1345
44.880,74.6268
44.890,70.4928
44.900,76.3487
44.910,69.9844
44.920,79.9675
44.930,71.1865
44.940,74.0872
44.950,79.3727
44.960,75.6697
44.970,77.9365
44.980,72.8817
44.990,77.3539
45.000,69.6937
45.010,78.0448
45.020,72.9047
45.030,73.0909
45.040,79.6661
45.050,74.4040
45.060,80.9218
45.070,87.1448
45.080,77.3994
45.090,77.7252
45.100,81.0588
45.110,80.4263
45.120,89.9869
45.130,88.6971
45.140,83.8419
45.150,85.4368
45.160,97.4571
45.170,91.6774
45.180,94.5757
45.190,98.3176
45.200,89.7767
45.210,103.7803
45.220,94.5832
45.230,97.6911
45.240,106.4413
45.250,108.5039
45.260,105.9539
45.270,110.7003
45.280,101.4790
45.290,106.5385
45.300,108.2984
45.310,103.0329
45.320,112.5922
45.330,114.6487
45.340,109.5500
45.350,107.5824
45.360,118.1747
45.370,110.3386
45.380,118.7353
45.390,116.1437
45.400,116.7995
45.410,117.7351
45.420,115.3554
45.430,124.8613
45.440,120.5989
45.450,119.8498
45.460,125.9970
45.470,127.1686
45.480,128.9429
45.490,128.2391
45.500,125.2422
45.510,127.2239
45.520,134.1696
45.530,127.4264
45.540,140.4866
45.550,139.1192
45.560,142.3496
45.570,137.4227
45.580,142.5757
45.590,140.5455
45.600,137.2158
45.610,143.8109
45.620,140.5197
45.630,149.4161
45.640,152.0385
45.650,149.0325
45.660,151.8189
45.670,154.5375
45.680,156.3756
45.690,155.8225
45.700,149.4736
45.710,157.4166
45.720,153.9182
45.730,160.6461
45.740,151.4383
45.750,156.5884
45.760,152.5178
45.770,155.5007
45.780,154.8945
45.790,157.9634
45.800,160.7064
45.810,160.2227
45.820,168.5133
45.830,171.6112
45.840,164.6634
45.850,165.4439
45.860,167.9438
45.870,165.2759
45.880,167.4835
45.890,171.6569
45.900,178.8997
45.910,180.4762
45.920,182.8937
45.930,182.0390
45.940,176.1950
45.950,179.8345
45.960,181.2789
45.970,179.7279
45.980,186.1036
45.990,187.7710
46.000,185.1602
46.010,184.8686
46.020,188.6341
46.030,188.5167
46.040,183.0166
46.050,184.8588
46.060,189.9666
46.070,179.3168
46.080,179.6216
46.090,181.7260
46.100,179.5638
46.110,188.6415
46.120,188.0168
46.130,182.4738
46.140,181.0422
46.150,184.9497
46.160,182.6579
46.170,181.1024
46.180,185.4280
46.190,182.5035
46.200,190.7130
46.210,188.7104
46.220,186.2194
46.230,184.7305
46.240,185.0941
46.250,180.8894
46.260,189.4190
46.270,182.3222
46.280,187.6776
46.290,185.3075
46.300,185.0574
46.310,189.8157
46.320,186.7785
46.330,184.8590
46.340,181.2326
46.350,181.8507
46.360,191.9136
46.370,186.4519
46.380,191.3426
46.390,188.9516
46.400,184.5524
46.410,185.7526
46.420,189.0148
46.430,183.8422
46.440,184.2245
46.450,186.3575
46.460,184.4102
46.470,180.2715
46.480,179.3645
46.490,182.1680
46.500,186.9369
46.510,192.0719
46.520,185.6172
46.530,185.1659
46.540,188.4529
46.550,184.5372
46.560,187.7164
46.570,180.2596
46.580,189.7568
46.590,188.0190
46.600,179.5454
46.610,187.0135
46.620,179.3820
46.630,182.9143
46.640,179.5624
46.650,187.5687
46.660,191.1323
46.670,182.0412
46.680,182.4915
46.690,184.8420
46.700,184.6384
46.710,181.8298
46.720,191.1860
46.730,184.0650
46.740,186.4712
46.750,190.4831
46.760,188.3629
46.770,181.9161
46.780,185.5399
46.790,187.8169
46.800,184.8398
46.810,189.4577
46.820,179.5181
46.830,182.1170
46.840,182.0026
46.850,191.8599
46.860,181.6358
46.870,179.5308
46.880,180.7976
46.890,189.8414
46.900,192.3634
46.910,188.2539
46.920,182.3116
46.930,182.3568
46.940,188.2451
46.950,180.4102
46.960,184.1048
46.970,182.1740
46.980,190.8185
46.990,182.9228
47.000,76.0731
47.010,77.1635
47.020,75.1104
47.030,70.3535
47.040,71.9049
47.050,77.8086
47.060,74.3872
47.070,75.0352
47.080,73.9522
47.090,76.7292
47.100,69.8726
47.110,71.0219
47.120,75.2427
47.130,71.6888
47.140,76.0175
47.150,73.1247
47.160,74.7223
47.170,75.0413
47.180,77.6027
47.190,73.3156
47.200,77.6783
47.210,78.2393
47.220,73.7068
47.230,79.8598
47.240,76.7369
47.250,80.3614
47.260,82.6059
47.270,74.5009
47.280,75.1065
47.290,79.4456
47.300,74.6507
47.310,82.7639
47.320,75.9004
47.330,77.9275
47.340,82.8125
47.350,82.6218
47.360,77.9706
47.370,73.4848
47.380,78.9542
47.390,79.6413
47.400,80.9336
47.410,77.9113
47.420,81.6336
47.430,75.1135
47.440,73.7620
47.450,81.2675
47.460,81.3186
47.470,74.8717
47.480,84.0299
47.490,73.4463
47.500,82.6326
47.510,85.5985
47.520,84.6690
47.530,85.8554
47.540,81.1616
47.550,78.2311
47.560,73.1111
47.570,75.3351
47.580,80.5317
47.590,74.2673
47.600,75.1076
47.610,72.7190
47.620,78.0637
47.630,74.8289
47.640,75.8877
47.650,81.0461
47.660,79.6305
47.670,83.2258
47.680,82.5955
47.690,80.6126
47.700,74.7807
47.710,83.5645
47.720,75.6977
47.730,74.5537
47.740,78.6833
47.750,73.2284
47.760,80.3561
47.770,78.2435
47.780,80.8034
47.790,70.0661
47.800,81.3423
47.810,76.0891
47.820,75.3410
47.830,80.2002
47.840,76.3727
47.850,81.2676
47.860,77.3094
47.870,74.1684
47.880,69.8112
47.890,76.8121
47.900,79.4820
47.910,67.0568
47.920,79.0782
47.930,71.6845
47.940,69.7592
47.950,75.0699
47.960,75.9765
47.970,70.9224
47.980,74.0510
47.990,69.7469
48.000,72.3460
48.010,73.2797
48.020,69.8073
48.030,70.1661
48.040,65.3114
48.050,68.2646
48.060,75.0830
48.070,74.4208
48.080,71.5735
48.090,63.9564
48.100,66.1498
48.110,64.8392
48.120,71.2039
48.130,69.6290
48.140,70.2952
48.150,70.1731
48.160,71.4438
48.170,71.0007
48.180,74.7248
48.190,63.3785
48.200,70.0956
48.210,62.6765
48.220,70.5626
48.230,66.5138
48.240,71.7058
48.250,63.9896
48.260,75.2350
48.270,65.6096
48.280,66.3508
48.290,65.6700
48.300,73.2351
48.310,75.5037
48.320,73.5757
48.330,68.6154
48.340,72.8194
48.350,75.6945
48.360,74.1142
48.370,66.7251
48.380,75.9154
48.390,70.7136
48.400,68.7217
48.410,76.1178
48.420,71.4773
48.430,73.1568
48.440,68.4791
48.450,74.3815
48.460,66.9776
48.470,78.5482
48.480,73.4727
48.490,77.2597
48.500,75.0816
48.510,79.8395
48.520,69.2037
48.530,70.6781
48.540,72.7845
48.550,73.1835
48.560,71.9785
48.570,77.6987
48.580,68.6989
48.590,77.7268
48.600,69.9123
48.610,69.1936
48.620,78.3147
48.630,70.2848
48.640,77.8164
48.650,71.3333
48.660,71.9736
48.670,79.7523
48.680,82.0573
48.690,78.7885
48.700,76.7224
48.710,83.8999
48.720,74.6806
48.730,83.7744
48.740,73.0737
48.750,73.1375
48.760,77.3313
48.770,76.5199
48.780,76.0782
48.790,84.0760
48.800,82.4271
48.810,83.9562
48.820,83.7222
48.830,83.0127
48.840,74.8688
48.850,73.4613
48.860,73.9731
48.870,77.8026
48.880,86.2207
48.890,81.2463
48.900,74.1746
48.910,76.6069
48.920,79.3015
48.930,85.1574
48.940,74.0143
48.950,76.3445
48.960,83.1184
48.970,73.5886
48.980,76.5017
48.990,84.7950
49.000,82.5201
49.010,85.8117
49.020,73.6370
49.030,79.0039
49.040,81.6592
49.050,82.7162
49.060,73.1836
49.070,78.9823
49.080,77.5232
49.090,74.9378
49.100,75.8101
49.110,79.3968
49.120,84.8820
49.130,81.0000
49.140,74.8914
49.150,73.5908
49.160,75.8746
49.170,83.2169
49.180,73.9887
49.190,71.2129
49.200,78.5938
49.210,70.4856
49.220,78.0068
49.230,72.9245
49.240,71.0522
49.250,80.6974
49.260,79.3858
49.270,69.5954
49.280,71.9230
49.290,80.6436
49.300,81.1655
49.310,72.4435
49.320,76.7229
49.330,77.5505
49.340,69.6783
49.350,77.2438
49.360,76.0941
49.370,72.6458
49.380,72.8028
49.390,71.5258
49.400,76.7253
49.410,78.5060
49.420,65.9406
49.430,70.9076
49.440,76.4198
49.450,66.3073
49.460,64.4632
49.470,71.0383
49.480,67.7672
49.490,65.6703
49.500,66.5818
49.510,64.2383
49.520,75.0128
49.530,68.9593
49.540,72.2318
49.550,72.9007
49.560,65.9047
49.570,74.9297
49.580,67.7660
49.590,71.2601
49.600,63.6569
49.610,70.0780
49.620,66.1102
49.630,69.5273
49.640,74.9780
49.650,73.9860
49.660,75.5701
49.670,72.2599
49.680,67.3521
49.690,75.3557
49.700,67.4036
49.710,64.7927
49.720,73.5342
49.730,65.6669
49.740,64.7550
49.750,66.5192
49.760,76.6260
49.770,70.5112
49.780,67.1259
49.790,75.6699
49.800,64.1114
49.810,71.1981
49.820,75.1704
49.830,72.7087
49.840,75.0719
49.850,65.8661
49.860,69.9704
49.870,72.6595
49.880,65.8447
49.890,70.9720
49.900,73.5513
49.910,74.0549
49.920,78.3387
49.930,72.4827
49.940,70.8961
49.950,69.5623
49.960,72.1826
49.970,69.9180
49.980,72.2610
49.990,75.0637
50.000,81.2143
50.010,70.7282
50.020,78.0153
50.030,78.0233
50.040,73.2531
50.050,72.6057
50.060,70.8786
50.070,73.2868
50.080,74.6727
50.090,79.2251
50.100,83.0796
50.110,73.9844
50.120,77.3633
50.130,83.0858
50.140,78.5034
50.150,73.5000
50.160,77.5176
50.170,85.2045
50.180,80.1634
50.190,72.8473
50.200,76.3353
50.210,82.9911
50.220,79.1761
50.230,82.4959
50.240,85.6985
50.250,77.5195
50.260,77.3642
50.270,84.7125
50.280,74.5345
50.290,81.9133
50.300,74.2914
50.310,74.3260
50.320,78.4995
50.330,75.2467
50.340,80.0660
50.350,84.0515
50.360,73.8961
50.370,85.1540
50.380,86.7979
50.390,75.7511
50.400,84.9488
50.410,79.3342
50.420,79.3600
50.430,81.6142
50.440,82.2315
50.450,83.0491
50.460,85.2367
50.470,74.2233
50.480,79.1784
50.490,73.0047
50.500,85.2322
50.510,82.4883
50.520,85.3021
50.530,77.9768
50.540,84.9908
50.550,78.7639
50.560,78.9535
50.570,76.3626
50.580,76.5464
50.590,81.2014
50.600,74.8529
50.610,75.5939
50.620,74.8225
50.630,82.8375
50.640,77.5345
50.650,73.2366
50.660,73.4246
50.670,80.3595
50.680,82.0143
50.690,76.4492
50.700,74.7466
50.710,74.4210
50.720,69.3744
50.730,75.6151
50.740,67.8214
50.750,78.9396
50.760,69.8164
50.770,74.3630
50.780,68.1943
50.790,68.8792
50.800,67.6857
50.810,68.4883
50.820,77.3056
50.830,70.6357
50.840,74.5723
50.850,75.4619
50.860,68.5558
50.870,71.9194
50.880,71.6030
50.890,70.7230
50.900,75.0356
50.910,71.7057
50.920,77.4120
50.930,69.7521
50.940,73.5193
50.950,68.0488
50.960,70.6518
50.970,66.1902
50.980,69.4120
50.990,64.5264
51.000,71.3007
51.010,70.2739
51.020,71.2242
51.030,71.7845
51.040,67.3267
51.050,67.7527
51.060,70.9202
51.070,64.4461
51.080,76.1073
51.090,63.3494
51.100,64.4414
51.110,73.6807
51.120,64.7333
51.130,64.1377
51.140,76.3447
51.150,66.7261
51.160,70.1034
51.170,64.4297
51.180,63.7545
51.190,71.6515
51.200,76.0976
51.210,67.4719
51.220,72.4136
51.230,72.7777
51.240,75.0053
51.250,70.7709
51.260,67.8497
51.270,70.1212
51.280,69.3576
51.290,75.6329
51.300,75.3494
51.310,75.3146
51.320,66.9363
51.330,68.0176
51.340,69.4347
51.350,70.0242
51.360,78.0801
51.370,74.9861
51.380,75.6049
51.390,76.1658
51.400,79.7245
51.410,71.6786
51.420,79.1564
51.430,74.1367
51.440,70.4217
51.450,69.3050
51.460,72.7322
51.470,76.3588
51.480,78.6768
51.490,76.8615
51.500,74.6314
51.510,75.5131
51.520,72.3250
51.530,71.9748
51.540,76.2090
51.550,81.8858
51.560,77.3024
51.570,80.7662
51.580,75.4415
51.590,77.5840
51.600,75.2033
51.610,79.7981
51.620,83.5277
51.630,84.9313
51.640,79.5333
51.650,80.6890
51.660,80.1118
51.670,82.5009
51.680,83.3861
51.690,81.6433
51.700,86.0583
51.710,81.8421
51.720,86.5898
51.730,76.5725
51.740,85.1278
51.750,79.6074
51.760,76.1365
51.770,78.4585
51.780,86.8758
51.790,84.3482
51.800,78.7006
51.810,80.2657
51.820,84.9637
51.830,81.7221
51.840,85.6310
51.850,82.4328
51.860,74.6293
51.870,76.7602
51.880,83.7394
51.890,74.5411
51.900,75.2683
51.910,82.8503
51.920,74.1328
51.930,85.2384
51.940,81.7867
51.950,79.6815
51.960,79.2354
51.970,73.5419
51.980,78.9159
51.990,81.9754
52.000,84.1429
52.010,77.5732
52.020,74.8092
52.030,79.3064
52.040,72.0702
52.050,77.9404
52.060,81.0426
52.070,74.0258
52.080,76.3525
52.090,75.4221
52.100,74.5582
52.110,73.4793
52.120,78.2219
52.130,69.6173
52.140,71.6127
52.150,70.9169
52.160,79.6383
52.170,72.2388
52.180,77.7316
52.190,69.1830
52.200,77.2871
52.210,76.3146
52.220,69.3956
52.230,71.0095
52.240,69.6227
52.250,77.1721
52.260,66.8268
52.270,75.9104
52.280,77.7869
52.290,77.1167
52.300,71.8458
52.310,73.9709
52.320,68.6329
52.330,70.9800
52.340,77.2486
52.350,65.1953
52.360,74.0648
52.370,74.6405
52.380,74.1601
52.390,75.7196
52.400,64.7262
52.410,75.3176
52.420,66.4755
52.430,64.3330
52.440,68.2259
52.450,75.5853
52.460,67.8857
52.470,66.1077
52.480,67.1817
52.490,67.2632
52.500,75.6103
52.510,75.1644
52.520,69.1057
52.530,74.7120
52.540,73.9941
52.550,69.6789
52.560,70.5485
52.570,68.4938
52.580,72.7966
52.590,64.3853
52.600,72.1572
52.610,71.3422
52.620,72.1608
52.630,75.0249
52.640,66.6791
52.650,65.3610
52.660,65.7626
52.670,77.0690
52.680,66.9235
52.690,68.8191
52.700,76.1111
52.710,67.9277
52.720,71.3791
52.730,66.6064
52.740,74.3040
52.750,76.4222
52.760,73.7332
52.770,77.3591
52.780,74.6970
52.790,77.5910
52.800,80.5731
52.810,77.5780
52.820,78.5995
52.830,70.6267
52.840,69.4713
52.850,69.0565
52.860,78.9907
52.870,69.2107
52.880,81.8654
52.890,70.9452
52.900,76.6859
52.910,78.0040
52.920,79.3163
52.930,72.0610
52.940,80.6453
52.950,74.3002
52.960,77.3068
52.970,75.2388
52.980,84.4273
52.990,80.4681
53.000,71.9304
53.010,72.7106
53.020,81.7212
53.030,72.9903
53.040,76.0608
53.050,83.6245
53.060,73.6416
53.070,80.7020
53.080,80.3827
53.090,75.9645
53.100,75.4085
53.110,85.6278
53.120,82.8934
53.130,77.0910
53.140,83.5030
53.150,79.3056
53.160,75.1199
53.170,84.7650
53.180,74.5073
53.190,77.2497
53.200,87.1096
53.210,85.3430
53.220,84.6057
53.230,74.8179
53.240,74.1652
53.250,82.4083
53.260,74.5989
53.270,87.0397
53.280,81.2460
53.290,75.6507
53.300,85.5959
53.310,80.9148
53.320,76.9829
53.330,79.9183
53.340,79.3697
53.350,82.4488
53.360,74.3523
53.370,81.6766
53.380,73.2776
53.390,76.0993
53.400,82.2031
53.410,79.1076
53.420,85.1283
53.430,74.7335
53.440,74.1682
53.450,78.7060
53.460,78.2035
53.470,72.3858
53.480,76.5102
53.490,73.4196
53.500,74.6826
53.510,72.9209
53.520,81.9136
53.530,73.1565
53.540,71.1922
53.550,77.7173
53.560,80.3317
53.570,75.3170
53.580,70.6276
53.590,72.6458
53.600,74.1576
53.610,72.5847
53.620,79.2669
53.630,71.9655
53.640,76.8462
53.650,68.1656
53.660,68.9228
53.670,76.6028
53.680,71.3889
53.690,75.2802
53.700,78.8717
53.710,72.2314
53.720,77.4651
53.730,74.3616
53.740,74.8527
53.750,71.7836
53.760,74.2571
53.770,73.5570
53.780,67.5527
53.790,70.4466
53.800,70.1881
53.810,76.8846
53.820,72.8479
53.830,75.0650
53.840,74.5927
53.850,77.0700
53.860,74.7872
53.870,69.8110
53.880,67.1710
53.890,69.4747
53.900,65.4858
53.910,65.4399
53.920,68.9977
53.930,68.6081
53.940,64.3067
53.950,71.6346
53.960,75.2547
53.970,75.5617
53.980,68.8487
53.990,72.3359
54.000,68.9705
54.010,66.6993
54.020,76.3920
54.030,70.0952
54.040,71.9896
54.050,68.2281
54.060,72.3416
54.070,67.4371
54.080,75.2584
54.090,66.5771
54.100,68.8857
54.110,72.9274
54.120,69.0017
54.130,69.1943
54.140,73.8445
54.150,67.1460
54.160,75.4876
54.170,70.0734
54.180,67.2824
54.190,71.5649
54.200,80.1330
54.210,67.5773
54.220,74.9427
54.230,73.3888
54.240,73.7728
54.250,69.4336
54.260,69.9774
54.270,71.6067
54.280,79.4333
54.290,80.8149
54.300,74.2481
54.310,70.0546
54.320,72.1110
54.330,81.1783
54.340,72.1951
54.350,76.1072
54.360,72.6537
54.370,80.6891
54.380,71.8279
54.390,77.8637
54.400,76.7062
54.410,81.6805
54.420,74.2129
54.430,80.8088
54.440,81.7210
54.450,81.9592
54.460,75.2844
54.470,73.2959
54.480,82.4262
54.490,84.6769
54.500,74.0629
54.510,77.3442
54.520,83.8367
54.530,74.9663
54.540,77.9657
54.550,86.2137
54.560,85.1916
54.570,86.5360
54.580,75.4163
54.590,75.7230
54.600,81.7504
54.610,78.5068
54.620,82.1473
54.630,75.8626
54.640,83.3903
54.650,86.1237
54.660,87.1223
54.670,82.2552
54.680,75.2554
54.690,81.7766
54.700,75.9758
54.710,87.3335
54.720,82.1499
54.730,86.1878
54.740,81.0885
54.750,77.2395
54.760,74.6070
54.770,77.8525
54.780,80.0266
54.790,73.6173
54.800,85.0610
54.810,79.2477
54.820,80.4094
54.830,85.9338
54.840,79.4580
54.850,83.5746
54.860,81.9974
54.870,83.6734
54.880,82.2760
54.890,77.6996
54.900,76.1154
54.910,80.9610
54.920,83.7142
54.930,82.8645
54.940,70.5519
54.950,78.5044
54.960,76.0991
54.970,82.5364
54.980,80.9969
54.990,76.5788
55.000,78.1872
55.010,79.0014
55.020,80.1544
55.030,73.7960
55.040,73.2048
55.050,78.9497
55.060,69.4402
55.070,79.4204
55.080,80.3246
55.090,71.2036
55.100,68.5829
55.110,73.6062
55.120,66.9733
55.130,74.1509
55.140,72.5397
55.150,70.6974
55.160,77.1491
55.170,75.6162
55.180,71.0245
55.190,68.3382
55.200,77.3927
55.210,68.9599
55.220,75.0461
55.230,71.6677
55.240,67.6370
55.250,67.2141
55.260,69.8258
55.270,69.6300
55.280,72.5512
55.290,76.8959
55.300,72.6019
55.310,76.5375
55.320,64.3748
55.330,75.1086
55.340,68.8517
55.350,68.4177
55.360,66.2649
55.370,65.5174
55.380,67.2960
55.390,70.5888
55.400,70.0859
55.410,64.0088
55.420,72.9358
55.430,69.7445
55.440,71.2653
55.450,65.0101
55.460,66.5042
55.470,76.2675
55.480,76.8309
55.490,73.4950
55.500,66.3369
55.510,67.5512
55.520,66.1108
55.530,66.4374
55.540,78.0061
55.550,70.2459
55.560,71.6146
55.570,74.0722
55.580,69.9642
55.590,78.8796
55.600,68.9021
55.610,73.5516
55.620,69.0615
55.630,80.2706
55.640,74.3486
55.650,70.4456
55.660,74.0772
55.670,70.8964
55.680,68.9581
55.690,73.3479
55.700,70.6315
55.710,70.7073
55.720,71.2625
55.730,76.7472
55.740,79.5536
55.750,77.0084
55.760,82.4475
55.770,77.2479
55.780,70.8528
55.790,72.2481
55.800,81.0526
55.810,78.8391
55.820,76.7934
55.830,81.3488
55.840,83.5023
55.850,76.5023
55.860,76.4481
55.870,80.5007
55.880,77.9979
55.890,73.5145
55.900,76.0207
55.910,76.7318
55.920,78.5480
55.930,76.0053
55.940,74.2996
55.950,74.1808
55.960,85.1884
55.970,75.4900
55.980,78.6019
55.990,83.9107
56.000,78.1185
56.010,80.6563
56.020,84.2532
56.030,79.0675
56.040,87.0753
56.050,77.3023
56.060,86.0682
56.070,76.8423
56.080,82.3073
56.090,86.5630
56.100,83.6108
56.110,76.9117
56.120,79.2684
56.130,74.4494
56.140,77.5507
56.150,79.6364
56.160,86.9923
56.170,85.0679
56.180,79.6980
56.190,76.5612
56.200,82.4168
56.210,77.9250
56.220,80.1991
56.230,77.4478
56.240,78.1641
56.250,84.9565
56.260,83.5924
56.270,77.7293
56.280,76.0768
56.290,73.6171
56.300,78.9913
56.310,80.9331
56.320,75.8858
56.330,72.4150
56.340,84.4526
56.350,77.4298
56.360,83.0288
56.370,73.1491
56.380,77.0670
56.390,70.6435
56.400,75.5177
56.410,75.1893
56.420,70.2244
56.430,75.4762
56.440,75.5656
56.450,69.8580
56.460,76.1187
56.470,75.9634
56.480,70.1882
56.490,68.8937
56.500,75.8331
56.510,72.1531
56.520,76.2570
56.530,76.4731
56.540,78.4466
56.550,77.2790
56.560,74.0527
56.570,69.8903
56.580,76.0993
56.590,74.0675
56.600,74.4965
56.610,78.0974
56.620,73.4436
56.630,65.3685
56.640,66.0185
56.650,72.8414
56.660,69.5908
56.670,74.7081
56.680,74.7688
56.690,64.7047
56.700,70.1496
56.710,74.6291
56.720,72.0864
56.730,72.3446
56.740,69.3541
56.750,72.5813
56.760,71.8216
56.770,68.0251
56.780,75.9742
56.790,72.9949
56.800,71.7274
56.810,67.9254
56.820,73.2171
56.830,74.6998
56.840,72.6992
56.850,68.2081
56.860,75.1190
56.870,70.5070
56.880,75.5809
56.890,74.2887
56.900,72.5710
56.910,76.5792
56.920,68.1563
56.930,75.2144
56.940,73.5750
56.950,67.7066
56.960,75.8902
56.970,72.6266
56.980,69.5615
56.990,73.1539
57.000,73.5500
57.010,66.6696
57.020,76.3322
57.030,67.4112
57.040,70.7457
57.050,72.5882
57.060,72.1547
57.070,71.5325
57.080,68.2814
57.090,76.4156
57.100,70.9698
57.110,81.8741
57.120,78.7824
57.130,72.9920
57.140,81.6155
57.150,81.2778
57.160,72.1403
57.170,72.2479
57.180,73.1022
57.190,75.8274
57.200,83.9582
57.210,82.4354
57.220,71.4515
57.230,73.2451
57.240,83.1812
57.250,84.3003
57.260,79.0759
57.270,77.8586
57.280,75.1826
57.290,79.6115
57.300,79.3290
57.310,78.3862
57.320,85.2916
57.330,81.9726
57.340,78.1818
57.350,84.4154
57.360,78.7484
57.370,79.5213
57.380,81.8916
57.390,75.4594
57.400,76.9393
57.410,76.0207
57.420,77.1954
57.430,82.0593
57.440,76.7807
57.450,81.7376
57.460,74.9081
57.470,86.0747
57.480,82.6020
57.490,78.4266
57.500,80.2318
57.510,75.0154
57.520,87.3828
57.530,77.9375
57.540,76.1365
57.550,82.0793
57.560,81.3082
57.570,81.3384
57.580,86.4254
57.590,86.2628
57.600,82.9776
57.610,84.0794
57.620,81.4981
57.630,74.7182
57.640,78.3679
57.650,77.6222
57.660,75.0611
57.670,81.1889
57.680,81.8605
57.690,73.0684
57.700,82.3411
57.710,79.9728
57.720,73.6699
57.730,81.1576
57.740,81.9449
57.750,71.9310
57.760,73.7487
57.770,76.2168
57.780,73.7874
57.790,74.6956
57.800,71.4122
57.810,82.6236
57.820,79.9463
57.830,75.2221
57.840,73.1149
57.850,81.5431
57.860,70.7340
57.870,81.3337
57.880,75.1006
57.890,74.2107
57.900,73.9387
57.910,75.1296
57.920,80.9171
57.930,80.4749
57.940,79.3842
57.950,69.6747
57.960,67.1639
57.970,68.4327
57.980,76.7121
57.990,77.5274
58.000,67.6842
58.010,75.3149
58.020,79.0161
58.030,66.9339
58.040,70.5474
58.050,75.6350
58.060,66.1653
58.070,68.8545
58.080,67.0012
58.090,75.3136
58.100,70.3047
58.110,77.7639
58.120,76.4554
58.130,64.6426
58.140,75.1491
58.150,74.0184
58.160,66.6999
58.170,69.4569
58.180,64.9886
58.190,65.4324
58.200,68.0211
58.210,66.9581
58.220,73.6590
58.230,65.1823
58.240,70.3729
58.250,71.1024
58.260,74.8028
58.270,72.3863
58.280,72.6946
58.290,67.5171
58.300,73.0230
58.310,77.0961
58.320,68.4470
58.330,65.0947
58.340,73.9056
58.350,70.0648
58.360,71.6377
58.370,73.0956
58.380,77.5648
58.390,70.4937
58.400,75.4590
58.410,78.9558
58.420,76.5370
58.430,78.2594
58.440,71.3652
58.450,77.4843
58.460,68.3786
58.470,79.1957
58.480,76.1729
58.490,75.8452
58.500,81.0138
58.510,75.9085
58.520,73.7864
58.530,81.7873
58.540,77.5584
58.550,81.2980
58.560,80.4004
58.570,70.2367
58.580,75.7255
58.590,81.9096
58.600,71.1440
58.610,74.9052
58.620,82.5791
58.630,76.6573
58.640,79.2402
58.650,75.9232
58.660,80.6831
58.670,72.4232
58.680,79.9485
58.690,81.2876
58.700,74.0278
58.710,78.0893
58.720,77.4188
58.730,74.0573
58.740,84.9346
58.750,79.9969
58.760,82.6713
58.770,78.8771
58.780,81.4831
58.790,75.7522
58.800,80.4407
58.810,77.0756
58.820,74.7586
58.830,84.8464
58.840,79.4832
58.850,79.5096
58.860,76.9995
58.870,80.3209
58.880,78.2302
58.890,79.2014
58.900,83.1856
58.910,80.8136
58.920,78.7274
58.930,80.4704
58.940,86.8364
58.950,77.3307
58.960,84.2861
58.970,79.4560
58.980,81.5361
58.990,79.2023
59.000,83.7536
59.010,75.1787
59.020,87.6668
59.030,82.4026
59.040,82.1282
59.050,79.6652
59.060,81.7154
59.070,79.4480
59.080,79.2432
59.090,76.1689
59.100,85.0021
59.110,84.5864
59.120,79.8974
59.130,77.7907
59.140,81.1412
59.150,83.9856
59.160,76.0685
59.170,76.6056
59.180,83.9705
59.190,76.0986
59.200,79.4270
59.210,84.2125
59.220,81.9550
59.230,79.2067
59.240,81.8771
59.250,80.3121
59.260,79.6763
59.270,70.5699
59.280,79.5092
59.290,69.6574
59.300,71.0429
59.310,74.0590
59.320,76.4731
59.330,81.1008
59.340,79.0019
59.350,69.7559
59.360,79.0864
59.370,80.5228
59.380,72.2271
59.390,68.1739
59.400,76.3807
59.410,79.7584
59.420,66.9874
59.430,67.2625
59.440,73.5191
59.450,67.4143
59.460,75.8198
59.470,70.8568
59.480,77.4575
59.490,77.3865
59.500,68.2262
59.510,68.7530
59.520,78.3306
59.530,65.7070
59.540,67.8415
59.550,76.7109
59.560,77.0731
59.570,71.2790
59.580,74.7267
59.590,70.5703
59.600,76.5808
59.610,70.7389
59.620,68.4720
59.630,72.9035
59.640,71.0796
59.650,68.8154
59.660,76.0531
59.670,73.4167
59.680,73.9955
59.690,64.5788
59.700,70.7789
59.710,66.1466
59.720,74.8719
59.730,69.0860
59.740,75.8629
59.750,73.6471
59.760,76.4936
59.770,66.0365
59.780,74.6741
59.790,65.8269
59.800,75.2085
59.810,72.3135
59.820,71.1863
59.830,74.0069
59.840,71.9074
59.850,77.9749
59.860,67.6922
59.870,74.4716
59.880,71.7699
59.890,68.7398
59.900,68.8437
59.910,69.6894
59.920,76.7669
59.930,80.7507
59.940,70.4352
59.950,70.5575
59.960,71.8543
59.970,71.0468
59.980,74.8071
59.990,74.6057
